Timestamp_ms,Packet_Number,Trial_ID,Ch1,Ch2,Ch3,Ch4,Ch5,Ch6,Ch7,Ch8,Ch9,Ch10,Ch11,Label
3270.8818359375,21518,1,1747.0,1747.0,1993.0,1706.0,1747.0,1659.0,1761.0,1745.0,92.46627044677734,-27.70223045349121,-59.646751403808594,Left
3272.8818359375,21518,1,1753.0,1766.0,1653.0,1705.0,1751.0,1711.0,1757.0,1752.0,92.46627044677734,-27.70223045349121,-59.646751403808594,Left
3274.8818359375,21518,1,1761.0,1767.0,1769.0,1751.0,1755.0,1719.0,1757.0,1754.0,92.46627044677734,-27.70223045349121,-59.646751403808594,Left
3276.8818359375,21518,1,1768.0,1769.0,1575.0,1752.0,1756.0,1767.0,1759.0,1759.0,92.46627044677734,-27.70223045349121,-59.646751403808594,Left
3278.8818359375,21518,1,1767.0,1769.0,1705.0,1679.0,1759.0,1741.0,1763.0,1757.0,92.46627044677734,-27.70223045349121,-59.646751403808594,Left
3276.257080078125,21519,1,1769.0,1765.0,1675.0,1657.0,1766.0,1787.0,1757.0,1762.0,92.46627044677734,-27.70223045349121,-59.646751403808594,Left
3278.257080078125,21519,1,1773.0,1767.0,1677.0,1615.0,1751.0,1822.0,1758.0,1749.0,92.46627044677734,-27.70223045349121,-59.646751403808594,Left
3280.257080078125,21519,1,1767.0,1757.0,1682.0,1679.0,1745.0,1839.0,1759.0,1737.0,92.46627044677734,-27.70223045349121,-59.646751403808594,Left
3282.257080078125,21519,1,1741.0,1743.0,1747.0,1694.0,1735.0,1749.0,1762.0,1727.0,92.46627044677734,-27.70223045349121,-59.646751403808594,Left
3284.257080078125,21519,1,1741.0,1747.0,1710.0,1719.0,1736.0,1703.0,1763.0,1737.0,92.46627044677734,-27.70223045349121,-59.646751403808594,Left
3289.714599609375,21520,1,1751.0,1754.0,1758.0,1723.0,1742.0,1670.0,1761.0,1748.0,92.46627044677734,-27.70223045349121,-59.646751403808594,Left
3291.714599609375,21520,1,1763.0,1761.0,1817.0,1741.0,1751.0,1708.0,1759.0,1757.0,92.46627044677734,-27.70223045349121,-59.646751403808594,Left
3293.714599609375,21520,1,1755.0,1765.0,1931.0,1675.0,1762.0,1719.0,1762.0,1755.0,92.46627044677734,-27.70223045349121,-59.646751403808594,Left
3295.714599609375,21520,1,1768.0,1771.0,1900.0,1651.0,1757.0,1753.0,1758.0,1758.0,92.49984741210938,-27.696077346801758,-59.65489196777344,Left
3297.714599609375,21520,1,1767.0,1771.0,1787.0,1625.0,1757.0,1747.0,1759.0,1763.0,92.49984741210938,-27.696077346801758,-59.65489196777344,Left
3297.720703125,21521,1,1772.0,1767.0,1686.0,1727.0,1767.0,1801.0,1759.0,1757.0,92.49984741210938,-27.696077346801758,-59.65489196777344,Left
3299.720703125,21521,1,1767.0,1764.0,1648.0,1781.0,1753.0,1828.0,1763.0,1747.0,92.49984741210938,-27.696077346801758,-59.65489196777344,Left
3301.720703125,21521,1,1753.0,1752.0,1567.0,1823.0,1741.0,1836.0,1759.0,1726.0,92.49984741210938,-27.696077346801758,-59.65489196777344,Left
3303.720703125,21521,1,1739.0,1750.0,1641.0,1851.0,1727.0,1747.0,1758.0,1722.0,92.49984741210938,-27.696077346801758,-59.65489196777344,Left
3305.720703125,21521,1,1749.0,1743.0,1847.0,1907.0,1737.0,1703.0,1757.0,1737.0,92.49984741210938,-27.696077346801758,-59.65489196777344,Left
3307.716552734375,21522,1,1747.0,1755.0,1951.0,1855.0,1741.0,1676.0,1762.0,1748.0,92.49984741210938,-27.696077346801758,-59.65489196777344,Left
3309.716552734375,21522,1,1753.0,1757.0,1843.0,1799.0,1752.0,1715.0,1759.0,1753.0,92.49984741210938,-27.696077346801758,-59.65489196777344,Left
3311.716552734375,21522,1,1766.0,1767.0,1891.0,1896.0,1755.0,1715.0,1758.0,1762.0,92.49984741210938,-27.696077346801758,-59.65489196777344,Left
3313.716552734375,21522,1,1775.0,1775.0,1771.0,1917.0,1759.0,1763.0,1757.0,1759.0,92.49984741210938,-27.696077346801758,-59.65489196777344,Left
3315.716552734375,21522,1,1759.0,1769.0,1712.0,1911.0,1759.0,1738.0,1757.0,1761.0,92.49984741210938,-27.696077346801758,-59.65489196777344,Left
3315.71630859375,21523,1,1773.0,1769.0,1735.0,1846.0,1765.0,1800.0,1763.0,1757.0,92.49984741210938,-27.696077346801758,-59.65489196777344,Left
3317.71630859375,21523,1,1767.0,1765.0,1816.0,1787.0,1753.0,1817.0,1763.0,1741.0,92.49984741210938,-27.696077346801758,-59.65489196777344,Left
3319.71630859375,21523,1,1751.0,1763.0,1863.0,1784.0,1747.0,1834.0,1765.0,1735.0,92.49984741210938,-27.696077346801758,-59.65489196777344,Left
3321.71630859375,21523,1,1739.0,1749.0,1955.0,1865.0,1736.0,1736.0,1759.0,1725.0,92.49984741210938,-27.696077346801758,-59.65489196777344,Left
3323.71630859375,21523,1,1740.0,1749.0,1957.0,1843.0,1739.0,1699.0,1759.0,1736.0,92.49984741210938,-27.696077346801758,-59.65489196777344,Left
3330.71435546875,21524,1,1747.0,1750.0,1975.0,1813.0,1736.0,1669.0,1761.0,1749.0,92.49984741210938,-27.696077346801758,-59.65489196777344,Left
3332.71435546875,21524,1,1762.0,1757.0,1869.0,1764.0,1750.0,1706.0,1776.0,1751.0,92.49984741210938,-27.696077346801758,-59.65489196777344,Left
3334.71435546875,21524,1,1763.0,1768.0,1801.0,1717.0,1759.0,1717.0,1759.0,1756.0,92.49984741210938,-27.696077346801758,-59.65489196777344,Left
3336.71435546875,21524,1,1764.0,1767.0,1635.0,1704.0,1754.0,1765.0,1759.0,1759.0,92.49984741210938,-27.696077346801758,-59.65489196777344,Left
3338.71435546875,21524,1,1763.0,1768.0,1705.0,1765.0,1757.0,1749.0,1763.0,1762.0,92.49984741210938,-27.696077346801758,-59.65489196777344,Left
3359.71435546875,21525,1,1784.0,1772.0,1597.0,1797.0,1767.0,1807.0,1756.0,1763.0,92.49984741210938,-27.696077346801758,-59.65489196777344,Left
3361.71435546875,21525,1,1763.0,1767.0,1675.0,1811.0,1755.0,1822.0,1762.0,1749.0,92.49984741210938,-27.696077346801758,-59.65489196777344,Left
3363.71435546875,21525,1,1749.0,1753.0,1615.0,1833.0,1747.0,1843.0,1761.0,1737.0,92.49984741210938,-27.696077346801758,-59.65489196777344,Left
3365.71435546875,21525,1,1739.0,1747.0,1551.0,1843.0,1735.0,1745.0,1755.0,1733.0,92.49984741210938,-27.696077346801758,-59.65489196777344,Left
3367.71435546875,21525,1,1737.0,1743.0,1655.0,1779.0,1736.0,1693.0,1759.0,1724.0,92.49984741210938,-27.696077346801758,-59.65489196777344,Left
3360.717041015625,21526,1,1748.0,1742.0,1715.0,1769.0,1743.0,1655.0,1762.0,1743.0,92.49984741210938,-27.696077346801758,-59.65489196777344,Left
3362.717041015625,21526,1,1759.0,1763.0,1900.0,1647.0,1753.0,1708.0,1758.0,1753.0,92.49984741210938,-27.696077346801758,-59.65489196777344,Left
3364.717041015625,21526,1,1763.0,1769.0,1750.0,1637.0,1755.0,1717.0,1761.0,1757.0,92.49984741210938,-27.696077346801758,-59.65489196777344,Left
3366.717041015625,21526,1,1765.0,1767.0,1757.0,1669.0,1759.0,1751.0,1758.0,1755.0,92.49984741210938,-27.696077346801758,-59.65489196777344,Left
3368.717041015625,21526,1,1768.0,1769.0,1677.0,1694.0,1755.0,1747.0,1757.0,1763.0,92.49984741210938,-27.696077346801758,-59.65489196777344,Left
3360.717041015625,21527,1,1772.0,1775.0,1685.0,1723.0,1766.0,1803.0,1759.0,1767.0,92.49984741210938,-27.696077346801758,-59.65489196777344,Left
3362.717041015625,21527,1,1767.0,1762.0,1689.0,1778.0,1757.0,1831.0,1759.0,1751.0,92.49774169921875,-27.7003116607666,-59.63615036010742,Left
3364.717041015625,21527,1,1754.0,1755.0,1655.0,1805.0,1745.0,1839.0,1762.0,1735.0,92.49774169921875,-27.7003116607666,-59.63615036010742,Left
3366.717041015625,21527,1,1740.0,1746.0,1775.0,1851.0,1725.0,1739.0,1763.0,1737.0,92.49774169921875,-27.7003116607666,-59.63615036010742,Left
3368.717041015625,21527,1,1747.0,1749.0,1800.0,1851.0,1737.0,1704.0,1758.0,1738.0,92.49774169921875,-27.7003116607666,-59.63615036010742,Left
3368.716796875,21528,1,1758.0,1764.0,1831.0,1835.0,1742.0,1668.0,1757.0,1746.0,92.49774169921875,-27.7003116607666,-59.63615036010742,Left
3370.716796875,21528,1,1753.0,1753.0,1762.0,1765.0,1753.0,1715.0,1752.0,1756.0,92.49774169921875,-27.7003116607666,-59.63615036010742,Left
3372.716796875,21528,1,1765.0,1765.0,1657.0,1759.0,1753.0,1720.0,1763.0,1753.0,92.49774169921875,-27.7003116607666,-59.63615036010742,Left
3374.716796875,21528,1,1771.0,1770.0,1735.0,1827.0,1758.0,1753.0,1759.0,1757.0,92.49774169921875,-27.7003116607666,-59.63615036010742,Left
3376.716796875,21528,1,1763.0,1768.0,1655.0,1839.0,1766.0,1747.0,1761.0,1757.0,92.49774169921875,-27.7003116607666,-59.63615036010742,Left
3377.715087890625,21529,1,1773.0,1779.0,1687.0,1771.0,1767.0,1800.0,1759.0,1763.0,92.49774169921875,-27.7003116607666,-59.63615036010742,Left
3379.715087890625,21529,1,1753.0,1765.0,1779.0,1746.0,1756.0,1831.0,1757.0,1753.0,92.49774169921875,-27.7003116607666,-59.63615036010742,Left
3381.715087890625,21529,1,1755.0,1756.0,1780.0,1727.0,1741.0,1845.0,1761.0,1737.0,92.49774169921875,-27.7003116607666,-59.63615036010742,Left
3383.715087890625,21529,1,1739.0,1743.0,1863.0,1683.0,1735.0,1747.0,1763.0,1735.0,92.49774169921875,-27.7003116607666,-59.63615036010742,Left
3385.715087890625,21529,1,1748.0,1751.0,1894.0,1672.0,1739.0,1703.0,1759.0,1740.0,92.49774169921875,-27.7003116607666,-59.63615036010742,Left
3388.97216796875,21530,1,1755.0,1739.0,1811.0,1740.0,1736.0,1671.0,1759.0,1740.0,92.49774169921875,-27.7003116607666,-59.63615036010742,Left
3390.97216796875,21530,1,1757.0,1769.0,1691.0,1662.0,1749.0,1709.0,1763.0,1753.0,92.49774169921875,-27.7003116607666,-59.63615036010742,Left
3392.97216796875,21530,1,1759.0,1763.0,1791.0,1702.0,1756.0,1724.0,1759.0,1755.0,92.49774169921875,-27.7003116607666,-59.63615036010742,Left
3394.97216796875,21530,1,1775.0,1769.0,1658.0,1749.0,1759.0,1757.0,1759.0,1755.0,92.49774169921875,-27.7003116607666,-59.63615036010742,Left
3396.97216796875,21530,1,1767.0,1771.0,1609.0,1767.0,1758.0,1743.0,1759.0,1765.0,92.49774169921875,-27.7003116607666,-59.63615036010742,Left
3397.5791015625,21531,1,1769.0,1772.0,1604.0,1685.0,1763.0,1801.0,1755.0,1755.0,92.49774169921875,-27.7003116607666,-59.63615036010742,Left
3399.5791015625,21531,1,1763.0,1767.0,1727.0,1723.0,1755.0,1829.0,1759.0,1745.0,92.49774169921875,-27.7003116607666,-59.63615036010742,Left
3401.5791015625,21531,1,1754.0,1757.0,1671.0,1657.0,1746.0,1847.0,1759.0,1735.0,92.49774169921875,-27.7003116607666,-59.63615036010742,Left
3403.5791015625,21531,1,1739.0,1747.0,1926.0,1671.0,1733.0,1749.0,1759.0,1721.0,92.49774169921875,-27.7003116607666,-59.63615036010742,Left
3405.5791015625,21531,1,1740.0,1751.0,1995.0,1685.0,1738.0,1695.0,1759.0,1737.0,92.49774169921875,-27.7003116607666,-59.63615036010742,Left
3407.15185546875,21532,1,1754.0,1752.0,1865.0,1770.0,1747.0,1673.0,1763.0,1751.0,92.49774169921875,-27.7003116607666,-59.63615036010742,Left
3409.15185546875,21532,1,1761.0,1757.0,1687.0,1764.0,1753.0,1705.0,1757.0,1755.0,92.49774169921875,-27.7003116607666,-59.63615036010742,Left
3411.15185546875,21532,1,1767.0,1765.0,1625.0,1755.0,1755.0,1711.0,1756.0,1759.0,92.49774169921875,-27.7003116607666,-59.63615036010742,Left
3413.15185546875,21532,1,1767.0,1767.0,1750.0,1798.0,1766.0,1755.0,1757.0,1763.0,92.49774169921875,-27.7003116607666,-59.63615036010742,Left
3415.15185546875,21532,1,1765.0,1767.0,1659.0,1775.0,1759.0,1747.0,1759.0,1765.0,92.49774169921875,-27.7003116607666,-59.63615036010742,Left
3417.65283203125,21533,1,1769.0,1766.0,1823.0,1790.0,1765.0,1806.0,1759.0,1765.0,92.49774169921875,-27.7003116607666,-59.63615036010742,Left
3419.65283203125,21533,1,1759.0,1762.0,1869.0,1719.0,1753.0,1830.0,1762.0,1753.0,92.49774169921875,-27.7003116607666,-59.63615036010742,Left
3421.65283203125,21533,1,1755.0,1756.0,1773.0,1721.0,1741.0,1846.0,1757.0,1739.0,92.49774169921875,-27.7003116607666,-59.63615036010742,Left
3423.65283203125,21533,1,1753.0,1747.0,1791.0,1725.0,1735.0,1745.0,1759.0,1725.0,92.48616027832031,-27.70648765563965,-59.62456512451172,Left
3425.65283203125,21533,1,1745.0,1749.0,1989.0,1775.0,1739.0,1700.0,1758.0,1739.0,92.48616027832031,-27.70648765563965,-59.62456512451172,Left
3425.864501953125,21534,1,1741.0,1755.0,1912.0,1767.0,1745.0,1675.0,1763.0,1749.0,92.48616027832031,-27.70648765563965,-59.62456512451172,Left
3427.864501953125,21534,1,1757.0,1756.0,1694.0,1785.0,1747.0,1703.0,1762.0,1750.0,92.48616027832031,-27.70648765563965,-59.62456512451172,Left
3429.864501953125,21534,1,1755.0,1759.0,1758.0,1727.0,1756.0,1708.0,1759.0,1751.0,92.48616027832031,-27.70648765563965,-59.62456512451172,Left
3431.864501953125,21534,1,1764.0,1769.0,1618.0,1704.0,1753.0,1754.0,1762.0,1763.0,92.48616027832031,-27.70648765563965,-59.62456512451172,Left
3433.864501953125,21534,1,1773.0,1767.0,1579.0,1803.0,1755.0,1751.0,1758.0,1757.0,92.48616027832031,-27.70648765563965,-59.62456512451172,Left
3438.126708984375,21535,1,1775.0,1779.0,1460.0,1687.0,1767.0,1803.0,1763.0,1763.0,92.48616027832031,-27.70648765563965,-59.62456512451172,Left
3440.126708984375,21535,1,1755.0,1767.0,1491.0,1629.0,1755.0,1831.0,1758.0,1749.0,92.48616027832031,-27.70648765563965,-59.62456512451172,Left
3442.126708984375,21535,1,1757.0,1757.0,1529.0,1719.0,1743.0,1844.0,1759.0,1737.0,92.48616027832031,-27.70648765563965,-59.62456512451172,Left
3444.126708984375,21535,1,1739.0,1750.0,1757.0,1755.0,1735.0,1739.0,1757.0,1727.0,92.48616027832031,-27.70648765563965,-59.62456512451172,Left
3446.126708984375,21535,1,1741.0,1750.0,1829.0,1717.0,1735.0,1703.0,1759.0,1734.0,92.48616027832031,-27.70648765563965,-59.62456512451172,Left
3448.604248046875,21536,1,1755.0,1749.0,1612.0,1765.0,1743.0,1675.0,1763.0,1746.0,92.48616027832031,-27.70648765563965,-59.62456512451172,Left
3450.604248046875,21536,1,1753.0,1757.0,1753.0,1737.0,1755.0,1705.0,1758.0,1754.0,92.48616027832031,-27.70648765563965,-59.62456512451172,Left
3452.604248046875,21536,1,1757.0,1766.0,1917.0,1784.0,1757.0,1707.0,1757.0,1756.0,92.48616027832031,-27.70648765563965,-59.62456512451172,Left
3454.604248046875,21536,1,1765.0,1771.0,1851.0,1787.0,1754.0,1752.0,1762.0,1757.0,92.48616027832031,-27.70648765563965,-59.62456512451172,Left
3456.604248046875,21536,1,1766.0,1771.0,1780.0,1791.0,1758.0,1753.0,1763.0,1762.0,92.48616027832031,-27.70648765563965,-59.62456512451172,Left
3479.474365234375,21537,1,1769.0,1768.0,1683.0,1733.0,1769.0,1784.0,1757.0,1763.0,92.48616027832031,-27.70648765563965,-59.62456512451172,Left
3481.474365234375,21537,1,1769.0,1767.0,1750.0,1674.0,1754.0,1827.0,1756.0,1749.0,92.48616027832031,-27.70648765563965,-59.62456512451172,Left
3483.474365234375,21537,1,1755.0,1763.0,1717.0,1669.0,1747.0,1846.0,1763.0,1736.0,92.48616027832031,-27.70648765563965,-59.62456512451172,Left
3485.474365234375,21537,1,1749.0,1749.0,1820.0,1701.0,1736.0,1739.0,1762.0,1723.0,92.48616027832031,-27.70648765563965,-59.62456512451172,Left
3487.474365234375,21537,1,1739.0,1749.0,1707.0,1688.0,1735.0,1705.0,1759.0,1739.0,92.48616027832031,-27.70648765563965,-59.62456512451172,Left
3479.474365234375,21538,1,1749.0,1751.0,1824.0,1768.0,1741.0,1691.0,1757.0,1741.0,92.48616027832031,-27.70648765563965,-59.62456512451172,Left
3481.474365234375,21538,1,1757.0,1758.0,1799.0,1782.0,1749.0,1704.0,1759.0,1753.0,92.48616027832031,-27.70648765563965,-59.62456512451172,Left
3483.474365234375,21538,1,1757.0,1763.0,1727.0,1829.0,1757.0,1711.0,1763.0,1757.0,92.48616027832031,-27.70648765563965,-59.62456512451172,Left
3485.474365234375,21538,1,1765.0,1768.0,1599.0,1800.0,1755.0,1759.0,1762.0,1753.0,92.48616027832031,-27.70648765563965,-59.62456512451172,Left
3487.474365234375,21538,1,1765.0,1771.0,1562.0,1755.0,1756.0,1740.0,1758.0,1755.0,92.48616027832031,-27.70648765563965,-59.62456512451172,Left
3479.474365234375,21539,1,1776.0,1775.0,1597.0,1711.0,1767.0,1786.0,1762.0,1765.0,92.48616027832031,-27.70648765563965,-59.62456512451172,Left
3481.474365234375,21539,1,1769.0,1763.0,1739.0,1686.0,1753.0,1831.0,1757.0,1751.0,92.48616027832031,-27.70648765563965,-59.62456512451172,Left
3483.474365234375,21539,1,1756.0,1756.0,1941.0,1608.0,1742.0,1834.0,1759.0,1735.0,92.48616027832031,-27.70648765563965,-59.62456512451172,Left
3485.474365234375,21539,1,1741.0,1747.0,2040.0,1654.0,1737.0,1737.0,1763.0,1727.0,92.48616027832031,-27.70648765563965,-59.62456512451172,Left
3487.474365234375,21539,1,1735.0,1743.0,1974.0,1708.0,1737.0,1719.0,1755.0,1741.0,92.48616027832031,-27.70648765563965,-59.62456512451172,Left
3488.456298828125,21540,1,1751.0,1747.0,1747.0,1767.0,1737.0,1685.0,1759.0,1743.0,92.48616027832031,-27.70648765563965,-59.62456512451172,Left
3490.456298828125,21540,1,1754.0,1757.0,1783.0,1753.0,1751.0,1693.0,1761.0,1739.0,92.50108337402344,-27.703125,-59.62123489379883,Left
3492.456298828125,21540,1,1752.0,1766.0,1775.0,1813.0,1756.0,1705.0,1759.0,1743.0,92.50108337402344,-27.703125,-59.62123489379883,Left
3494.456298828125,21540,1,1762.0,1770.0,1671.0,1877.0,1753.0,1755.0,1763.0,1755.0,92.50108337402344,-27.703125,-59.62123489379883,Left
3496.456298828125,21540,1,1769.0,1762.0,1769.0,1804.0,1757.0,1757.0,1763.0,1769.0,92.50108337402344,-27.703125,-59.62123489379883,Left
3498.03515625,21541,1,1769.0,1779.0,1702.0,1720.0,1769.0,1784.0,1759.0,1755.0,92.50108337402344,-27.703125,-59.62123489379883,Left
3500.03515625,21541,1,1753.0,1765.0,1755.0,1721.0,1753.0,1839.0,1753.0,1751.0,92.50108337402344,-27.703125,-59.62123489379883,Left
3502.03515625,21541,1,1751.0,1755.0,1671.0,1733.0,1742.0,1837.0,1759.0,1734.0,92.50108337402344,-27.703125,-59.62123489379883,Left
3504.03515625,21541,1,1737.0,1725.0,1558.0,1806.0,1725.0,1748.0,1758.0,1725.0,92.50108337402344,-27.703125,-59.62123489379883,Left
3506.03515625,21541,1,1747.0,1735.0,1741.0,1763.0,1735.0,1709.0,1758.0,1737.0,92.50108337402344,-27.703125,-59.62123489379883,Left
3508.43798828125,21542,1,1742.0,1742.0,1699.0,1803.0,1740.0,1683.0,1757.0,1742.0,92.50108337402344,-27.703125,-59.62123489379883,Left
3510.43798828125,21542,1,1763.0,1803.0,1739.0,1807.0,1773.0,1691.0,1757.0,1746.0,92.50108337402344,-27.703125,-59.62123489379883,Left
3512.43798828125,21542,1,1758.0,1746.0,1956.0,1755.0,1753.0,1711.0,1761.0,1757.0,92.50108337402344,-27.703125,-59.62123489379883,Left
3514.43798828125,21542,1,1757.0,1715.0,1911.0,1759.0,1717.0,1771.0,1763.0,1755.0,92.50108337402344,-27.703125,-59.62123489379883,Left
3516.43798828125,21542,1,1772.0,1779.0,1891.0,1811.0,1763.0,1780.0,1762.0,1775.0,92.50108337402344,-27.703125,-59.62123489379883,Left
3516.263671875,21543,1,1779.0,1739.0,1869.0,1726.0,1753.0,1821.0,1764.0,1775.0,92.50108337402344,-27.703125,-59.62123489379883,Left
3518.263671875,21543,1,1773.0,1785.0,1767.0,1747.0,1781.0,1817.0,1758.0,1752.0,92.50108337402344,-27.703125,-59.62123489379883,Left
3520.263671875,21543,1,1763.0,1824.0,1636.0,1831.0,1799.0,1815.0,1762.0,1746.0,92.50108337402344,-27.703125,-59.62123489379883,Left
3522.263671875,21543,1,1745.0,1817.0,1768.0,1821.0,1737.0,1703.0,1757.0,1711.0,92.50108337402344,-27.703125,-59.62123489379883,Left
3524.263671875,21543,1,1724.0,1748.0,1813.0,1767.0,1720.0,1660.0,1759.0,1704.0,92.50108337402344,-27.703125,-59.62123489379883,Left
3527.156494140625,21544,1,1741.0,1743.0,1935.0,1807.0,1735.0,1689.0,1757.0,1735.0,92.50108337402344,-27.703125,-59.62123489379883,Left
3529.156494140625,21544,1,1757.0,1741.0,1850.0,1805.0,1733.0,1766.0,1759.0,1737.0,92.50108337402344,-27.703125,-59.62123489379883,Left
3531.156494140625,21544,1,1755.0,1751.0,1958.0,1801.0,1745.0,1739.0,1763.0,1751.0,92.50108337402344,-27.703125,-59.62123489379883,Left
3533.156494140625,21544,1,1775.0,1765.0,1831.0,1805.0,1757.0,1779.0,1759.0,1763.0,92.50108337402344,-27.703125,-59.62123489379883,Left
3535.156494140625,21544,1,1767.0,1768.0,1917.0,1701.0,1757.0,1757.0,1764.0,1753.0,92.50108337402344,-27.703125,-59.62123489379883,Left
3535.9150390625,21545,1,1767.0,1763.0,1887.0,1709.0,1757.0,1784.0,1763.0,1765.0,92.50108337402344,-27.703125,-59.62123489379883,Left
3537.9150390625,21545,1,1771.0,1765.0,1816.0,1720.0,1753.0,1869.0,1754.0,1757.0,92.50108337402344,-27.703125,-59.62123489379883,Left
3539.9150390625,21545,1,1771.0,1757.0,1867.0,1671.0,1752.0,1925.0,1756.0,1753.0,92.50108337402344,-27.703125,-59.62123489379883,Left
3541.9150390625,21545,1,1755.0,1750.0,1783.0,1668.0,1739.0,1745.0,1758.0,1739.0,92.50108337402344,-27.703125,-59.62123489379883,Left
3543.9150390625,21545,1,1768.0,1749.0,1876.0,1739.0,1727.0,1653.0,1763.0,1739.0,92.50108337402344,-27.703125,-59.62123489379883,Left
3545.87255859375,21546,1,1743.0,1737.0,1863.0,1769.0,1733.0,1611.0,1759.0,1751.0,92.50108337402344,-27.703125,-59.62123489379883,Left
3547.87255859375,21546,1,1754.0,1743.0,1705.0,1810.0,1743.0,1627.0,1763.0,1725.0,92.50108337402344,-27.703125,-59.62123489379883,Left
3549.87255859375,21546,1,1739.0,1741.0,1748.0,1821.0,1737.0,1719.0,1763.0,1741.0,92.50108337402344,-27.703125,-59.62123489379883,Left
3551.87255859375,21546,1,1769.0,1768.0,1687.0,1800.0,1757.0,1812.0,1763.0,1759.0,92.52031707763672,-27.69414520263672,-59.6460075378418,Left
3553.87255859375,21546,1,1767.0,1769.0,1607.0,1890.0,1778.0,1837.0,1753.0,1773.0,92.52031707763672,-27.69414520263672,-59.6460075378418,Left
3559.55078125,21547,1,1785.0,1779.0,1629.0,1881.0,1787.0,1862.0,1759.0,1773.0,92.52031707763672,-27.69414520263672,-59.6460075378418,Left
3561.55078125,21547,1,1763.0,1785.0,1681.0,1823.0,1753.0,1899.0,1761.0,1738.0,92.52031707763672,-27.69414520263672,-59.6460075378418,Left
3563.55078125,21547,1,1747.0,1781.0,1639.0,1801.0,1747.0,1894.0,1758.0,1725.0,92.52031707763672,-27.69414520263672,-59.6460075378418,Left
3565.55078125,21547,1,1733.0,1741.0,1580.0,1813.0,1719.0,1695.0,1759.0,1695.0,92.52031707763672,-27.69414520263672,-59.6460075378418,Left
3567.55078125,21547,1,1715.0,1725.0,1699.0,1899.0,1715.0,1559.0,1757.0,1701.0,92.52031707763672,-27.69414520263672,-59.6460075378418,Left
3565.9990234375,21548,1,1747.0,1739.0,1765.0,1893.0,1740.0,1699.0,1756.0,1746.0,92.52031707763672,-27.69414520263672,-59.6460075378418,Left
3567.9990234375,21548,1,1759.0,1747.0,1643.0,1882.0,1747.0,1769.0,1761.0,1772.0,92.52031707763672,-27.69414520263672,-59.6460075378418,Left
3569.9990234375,21548,1,1763.0,1739.0,1711.0,1791.0,1725.0,1816.0,1763.0,1765.0,92.52031707763672,-27.69414520263672,-59.6460075378418,Left
3571.9990234375,21548,1,1773.0,1800.0,1481.0,1811.0,1779.0,1819.0,1759.0,1767.0,92.52031707763672,-27.69414520263672,-59.6460075378418,Left
3573.9990234375,21548,1,1767.0,1775.0,1681.0,1691.0,1753.0,1829.0,1762.0,1765.0,92.52031707763672,-27.69414520263672,-59.6460075378418,Left
3596.033203125,21549,1,1779.0,1783.0,1563.0,1672.0,1771.0,1833.0,1755.0,1771.0,92.52031707763672,-27.69414520263672,-59.6460075378418,Left
3598.033203125,21549,1,1755.0,1741.0,1553.0,1655.0,1735.0,1721.0,1757.0,1749.0,92.52031707763672,-27.69414520263672,-59.6460075378418,Left
3600.033203125,21549,1,1746.0,1775.0,1477.0,1656.0,1761.0,1661.0,1757.0,1721.0,92.52031707763672,-27.69414520263672,-59.6460075378418,Left
3602.033203125,21549,1,1752.0,1763.0,1545.0,1685.0,1747.0,1593.0,1759.0,1719.0,92.52031707763672,-27.69414520263672,-59.6460075378418,Left
3604.033203125,21549,1,1735.0,1747.0,1593.0,1723.0,1725.0,1621.0,1763.0,1716.0,92.52031707763672,-27.69414520263672,-59.6460075378418,Left
3596.033203125,21550,1,1728.0,1755.0,1497.0,1739.0,1735.0,1663.0,1751.0,1695.0,92.52031707763672,-27.69414520263672,-59.6460075378418,Left
3598.033203125,21550,1,1735.0,1749.0,1599.0,1748.0,1740.0,1721.0,1762.0,1719.0,92.52031707763672,-27.69414520263672,-59.6460075378418,Left
3600.033203125,21550,1,1736.0,1755.0,1675.0,1782.0,1749.0,1653.0,1759.0,1719.0,92.52031707763672,-27.69414520263672,-59.6460075378418,Left
3602.033203125,21550,1,1781.0,1765.0,1832.0,1765.0,1763.0,1919.0,1757.0,1801.0,92.52031707763672,-27.69414520263672,-59.6460075378418,Left
3604.033203125,21550,1,1773.0,1741.0,1883.0,1801.0,1749.0,1920.0,1761.0,1801.0,92.52031707763672,-27.69414520263672,-59.6460075378418,Left
3598.54638671875,21551,1,1801.0,1765.0,1961.0,1785.0,1757.0,1885.0,1757.0,1835.0,92.52031707763672,-27.69414520263672,-59.6460075378418,Left
3600.54638671875,21551,1,1835.0,1819.0,2011.0,1767.0,1803.0,1911.0,1763.0,1824.0,92.52031707763672,-27.69414520263672,-59.6460075378418,Left
3602.54638671875,21551,1,1783.0,1779.0,1983.0,1845.0,1769.0,1917.0,1755.0,1721.0,92.52031707763672,-27.69414520263672,-59.6460075378418,Left
3604.54638671875,21551,1,1727.0,1739.0,1883.0,1816.0,1724.0,1791.0,1757.0,1709.0,92.52031707763672,-27.69414520263672,-59.6460075378418,Left
3606.54638671875,21551,1,1735.0,1740.0,1777.0,1895.0,1723.0,1755.0,1757.0,1691.0,92.52031707763672,-27.69414520263672,-59.6460075378418,Left
3607.978515625,21552,1,1716.0,1747.0,1686.0,1815.0,1735.0,1703.0,1763.0,1699.0,92.52031707763672,-27.69414520263672,-59.6460075378418,Left
3609.978515625,21552,1,1719.0,1753.0,1786.0,1764.0,1739.0,1736.0,1762.0,1700.0,92.52031707763672,-27.69414520263672,-59.6460075378418,Left
3611.978515625,21552,1,1747.0,1763.0,1845.0,1752.0,1745.0,1747.0,1761.0,1765.0,92.52031707763672,-27.69414520263672,-59.6460075378418,Left
3613.978515625,21552,1,1781.0,1771.0,1827.0,1762.0,1759.0,1804.0,1762.0,1798.0,92.52031707763672,-27.69414520263672,-59.6460075378418,Left
3615.978515625,21552,1,1751.0,1759.0,1661.0,1773.0,1747.0,1787.0,1763.0,1752.0,92.52031707763672,-27.69414520263672,-59.6460075378418,Left
3622.09423828125,21553,1,1789.0,1779.0,1739.0,1728.0,1769.0,1820.0,1759.0,1791.0,92.52031707763672,-27.69414520263672,-59.6460075378418,Left
3624.09423828125,21553,1,1813.0,1775.0,1637.0,1699.0,1772.0,1951.0,1756.0,1835.0,93.00977325439453,-27.75893211364746,-60.21276092529297,Left
3626.09423828125,21553,1,1797.0,1763.0,1753.0,1636.0,1758.0,1930.0,1759.0,1769.0,93.00977325439453,-27.75893211364746,-60.21276092529297,Left
3628.09423828125,21553,1,1747.0,1756.0,1773.0,1743.0,1753.0,1829.0,1759.0,1715.0,93.00977325439453,-27.75893211364746,-60.21276092529297,Left
3630.09423828125,21553,1,1757.0,1757.0,1831.0,1752.0,1751.0,1816.0,1758.0,1735.0,93.00977325439453,-27.75893211364746,-60.21276092529297,Left
3628.104248046875,21554,1,1747.0,1763.0,1956.0,1707.0,1735.0,1844.0,1755.0,1724.0,93.00977325439453,-27.75893211364746,-60.21276092529297,Left
3630.104248046875,21554,1,1751.0,1757.0,2011.0,1696.0,1745.0,1879.0,1758.0,1743.0,93.00977325439453,-27.75893211364746,-60.21276092529297,Left
3632.104248046875,21554,1,1749.0,1759.0,1989.0,1749.0,1747.0,2385.0,1758.0,1749.0,93.00977325439453,-27.75893211364746,-60.21276092529297,Left
3634.104248046875,21554,1,1755.0,1748.0,1853.0,1723.0,1736.0,2410.0,1761.0,1724.0,93.00977325439453,-27.75893211364746,-60.21276092529297,Left
3636.104248046875,21554,1,1747.0,1750.0,1788.0,1715.0,1727.0,2230.0,1759.0,1748.0,93.00977325439453,-27.75893211364746,-60.21276092529297,Left
3637.976318359375,21555,1,1769.0,1811.0,1867.0,1641.0,1791.0,2258.0,1756.0,1755.0,93.00977325439453,-27.75893211364746,-60.21276092529297,Left
3639.976318359375,21555,1,1755.0,1767.0,1788.0,1657.0,1759.0,2236.0,1765.0,1736.0,93.00977325439453,-27.75893211364746,-60.21276092529297,Left
3641.976318359375,21555,1,1763.0,1753.0,1591.0,1589.0,1747.0,2395.0,1762.0,1738.0,93.00977325439453,-27.75893211364746,-60.21276092529297,Left
3643.976318359375,21555,1,1737.0,1755.0,1611.0,1641.0,1741.0,2194.0,1758.0,1711.0,93.00977325439453,-27.75893211364746,-60.21276092529297,Left
3645.976318359375,21555,1,1735.0,1741.0,1775.0,1707.0,1727.0,2023.0,1758.0,1723.0,93.00977325439453,-27.75893211364746,-60.21276092529297,Left
3649.9248046875,21556,1,1747.0,1727.0,1785.0,1691.0,1727.0,1851.0,1757.0,1747.0,93.00977325439453,-27.75893211364746,-60.21276092529297,Left
3651.9248046875,21556,1,1765.0,1765.0,1775.0,1693.0,1755.0,1711.0,1757.0,1755.0,93.00977325439453,-27.75893211364746,-60.21276092529297,Left
3653.9248046875,21556,1,1762.0,1783.0,1627.0,1661.0,1766.0,1523.0,1762.0,1736.0,93.00977325439453,-27.75893211364746,-60.21276092529297,Left
3655.9248046875,21556,1,1764.0,1785.0,1611.0,1670.0,1768.0,1399.0,1763.0,1759.0,93.00977325439453,-27.75893211364746,-60.21276092529297,Left
3657.9248046875,21556,1,1763.0,1779.0,1746.0,1659.0,1753.0,1391.0,1759.0,1766.0,93.00977325439453,-27.75893211364746,-60.21276092529297,Left
3656.097900390625,21557,1,1763.0,1739.0,1755.0,1657.0,1735.0,1531.0,1754.0,1759.0,93.00977325439453,-27.75893211364746,-60.21276092529297,Left
3658.097900390625,21557,1,1767.0,1749.0,1807.0,1643.0,1755.0,1702.0,1759.0,1749.0,93.00977325439453,-27.75893211364746,-60.21276092529297,Left
3660.097900390625,21557,1,1747.0,1742.0,1759.0,1721.0,1745.0,1781.0,1763.0,1735.0,93.00977325439453,-27.75893211364746,-60.21276092529297,Left
3662.097900390625,21557,1,1757.0,1725.0,1833.0,1779.0,1739.0,1689.0,1755.0,1739.0,93.00977325439453,-27.75893211364746,-60.21276092529297,Left
3664.097900390625,21557,1,1748.0,1742.0,1700.0,1716.0,1732.0,1607.0,1761.0,1727.0,93.00977325439453,-27.75893211364746,-60.21276092529297,Left
3668.70068359375,21558,1,1767.0,1782.0,1652.0,1753.0,1785.0,1359.0,1757.0,1755.0,93.00977325439453,-27.75893211364746,-60.21276092529297,Left
3670.70068359375,21558,1,1763.0,1785.0,1784.0,1789.0,1765.0,1323.0,1762.0,1745.0,93.00977325439453,-27.75893211364746,-60.21276092529297,Left
3672.70068359375,21558,1,1749.0,1765.0,1747.0,1821.0,1753.0,1257.0,1759.0,1751.0,93.00977325439453,-27.75893211364746,-60.21276092529297,Left
3674.70068359375,21558,1,1757.0,1757.0,1735.0,1805.0,1741.0,461.0,1759.0,1757.0,93.00977325439453,-27.75893211364746,-60.21276092529297,Left
3676.70068359375,21558,1,1759.0,1755.0,1815.0,1779.0,1749.0,0.0,1757.0,1741.0,93.00977325439453,-27.75893211364746,-60.21276092529297,Left
3677.74462890625,21559,1,1767.0,1769.0,1885.0,1704.0,1763.0,0.0,1757.0,1755.0,93.00977325439453,-27.75893211364746,-60.21276092529297,Left
3679.74462890625,21559,1,1757.0,1761.0,1803.0,1679.0,1752.0,0.0,1758.0,1737.0,93.00977325439453,-27.75893211364746,-60.21276092529297,Left
3681.74462890625,21559,1,1745.0,1741.0,1947.0,1785.0,1726.0,819.0,1759.0,1733.0,93.00977325439453,-27.75893211364746,-60.21276092529297,Left
3683.74462890625,21559,1,1751.0,1747.0,1897.0,1789.0,1734.0,1041.0,1763.0,1743.0,94.93960571289062,-27.796472549438477,-59.70265579223633,Left
3685.74462890625,21559,1,1757.0,1785.0,1971.0,1816.0,1772.0,1123.0,1759.0,1750.0,94.93960571289062,-27.796472549438477,-59.70265579223633,Left
3688.95263671875,21560,1,1755.0,1759.0,1853.0,1863.0,1740.0,1320.0,1751.0,1736.0,94.93960571289062,-27.796472549438477,-59.70265579223633,Left
3690.95263671875,21560,1,1755.0,1738.0,1740.0,1903.0,1737.0,1635.0,1759.0,1755.0,94.93960571289062,-27.796472549438477,-59.70265579223633,Left
3692.95263671875,21560,1,1771.0,1739.0,1609.0,1892.0,1752.0,1927.0,1763.0,1753.0,94.93960571289062,-27.796472549438477,-59.70265579223633,Left
3694.95263671875,21560,1,1755.0,1779.0,1692.0,1834.0,1773.0,2233.0,1762.0,1749.0,94.93960571289062,-27.796472549438477,-59.70265579223633,Left
3696.95263671875,21560,1,1769.0,1785.0,1595.0,1789.0,1767.0,2401.0,1763.0,1758.0,94.93960571289062,-27.796472549438477,-59.70265579223633,Left
3716.7763671875,21561,1,1762.0,1772.0,1599.0,1758.0,1750.0,2479.0,1759.0,1755.0,94.93960571289062,-27.796472549438477,-59.70265579223633,Left
3718.7763671875,21561,1,1756.0,1752.0,1755.0,1781.0,1739.0,2813.0,1757.0,1735.0,94.93960571289062,-27.796472549438477,-59.70265579223633,Left
3720.7763671875,21561,1,1753.0,1743.0,1819.0,1715.0,1727.0,2857.0,1759.0,1736.0,94.93960571289062,-27.796472549438477,-59.70265579223633,Left
3722.7763671875,21561,1,1757.0,1751.0,1690.0,1751.0,1738.0,2331.0,1763.0,1747.0,94.93960571289062,-27.796472549438477,-59.70265579223633,Left
3724.7763671875,21561,1,1752.0,1765.0,1861.0,1773.0,1756.0,1883.0,1759.0,1739.0,94.93960571289062,-27.796472549438477,-59.70265579223633,Left
3717.591796875,21562,1,1750.0,1737.0,1754.0,1829.0,1722.0,1675.0,1759.0,1750.0,94.93960571289062,-27.796472549438477,-59.70265579223633,Left
3719.591796875,21562,1,1763.0,1797.0,1768.0,1791.0,1783.0,1703.0,1758.0,1761.0,94.93960571289062,-27.796472549438477,-59.70265579223633,Left
3721.591796875,21562,1,1771.0,1759.0,1915.0,1775.0,1755.0,1816.0,1758.0,1766.0,94.93960571289062,-27.796472549438477,-59.70265579223633,Left
3723.591796875,21562,1,1770.0,1765.0,1893.0,1705.0,1756.0,2006.0,1759.0,1763.0,94.93960571289062,-27.796472549438477,-59.70265579223633,Left
3725.591796875,21562,1,1765.0,1759.0,1690.0,1797.0,1751.0,2099.0,1761.0,1747.0,94.93960571289062,-27.796472549438477,-59.70265579223633,Left
3718.853271484375,21563,1,1753.0,1757.0,1577.0,1704.0,1751.0,2234.0,1759.0,1746.0,94.93960571289062,-27.796472549438477,-59.70265579223633,Left
3720.853271484375,21563,1,1747.0,1762.0,1543.0,1723.0,1747.0,2633.0,1759.0,1736.0,94.93960571289062,-27.796472549438477,-59.70265579223633,Left
3722.853271484375,21563,1,1753.0,1753.0,1486.0,1674.0,1741.0,2583.0,1759.0,1736.0,94.93960571289062,-27.796472549438477,-59.70265579223633,Left
3724.853271484375,21563,1,1742.0,1752.0,1407.0,1767.0,1743.0,1997.0,1757.0,1747.0,94.93960571289062,-27.796472549438477,-59.70265579223633,Left
3726.853271484375,21563,1,1757.0,1755.0,1533.0,1817.0,1751.0,1563.0,1759.0,1756.0,94.93960571289062,-27.796472549438477,-59.70265579223633,Left
3725.78271484375,21564,1,1759.0,1757.0,1492.0,1848.0,1755.0,1375.0,1759.0,1752.0,94.93960571289062,-27.796472549438477,-59.70265579223633,Left
3727.78271484375,21564,1,1751.0,1755.0,1339.0,1866.0,1737.0,1523.0,1762.0,1751.0,94.93960571289062,-27.796472549438477,-59.70265579223633,Left
3729.78271484375,21564,1,1764.0,1765.0,1298.0,1745.0,1755.0,1661.0,1759.0,1752.0,94.93960571289062,-27.796472549438477,-59.70265579223633,Left
3731.78271484375,21564,1,1755.0,1767.0,1595.0,1717.0,1752.0,2041.0,1758.0,1752.0,94.93960571289062,-27.796472549438477,-59.70265579223633,Left
3733.78271484375,21564,1,1753.0,1754.0,1691.0,1709.0,1746.0,2193.0,1758.0,1727.0,94.93960571289062,-27.796472549438477,-59.70265579223633,Left
3738.280029296875,21565,1,1758.0,1761.0,1577.0,1641.0,1750.0,2407.0,1763.0,1737.0,94.93960571289062,-27.796472549438477,-59.70265579223633,Left
3740.280029296875,21565,1,1761.0,1757.0,1659.0,1607.0,1752.0,2809.0,1759.0,1749.0,94.93960571289062,-27.796472549438477,-59.70265579223633,Left
3742.280029296875,21565,1,1767.0,1766.0,1646.0,1647.0,1752.0,2771.0,1762.0,1745.0,94.93960571289062,-27.796472549438477,-59.70265579223633,Left
3744.280029296875,21565,1,1752.0,1767.0,1855.0,1686.0,1747.0,1702.0,1761.0,1739.0,94.93960571289062,-27.796472549438477,-59.70265579223633,Left
3746.280029296875,21565,1,1763.0,1763.0,1907.0,1845.0,1750.0,1147.0,1759.0,1747.0,94.93960571289062,-27.796472549438477,-59.70265579223633,Left
3751.955810546875,21566,1,1763.0,1746.0,1975.0,1847.0,1754.0,1187.0,1757.0,1751.0,94.93960571289062,-27.796472549438477,-59.70265579223633,Left
3753.955810546875,21566,1,1755.0,1754.0,1932.0,1811.0,1751.0,1527.0,1759.0,1748.0,95.13445281982422,-30.92046356201172,-59.31615447998047,Left
3755.955810546875,21566,1,1769.0,1759.0,2037.0,1753.0,1755.0,1129.0,1762.0,1751.0,95.13445281982422,-30.92046356201172,-59.31615447998047,Left
3757.955810546875,21566,1,1767.0,1752.0,2031.0,1684.0,1752.0,0.0,1759.0,1755.0,95.13445281982422,-30.92046356201172,-59.31615447998047,Left
3759.955810546875,21566,1,1753.0,1753.0,1927.0,1691.0,1748.0,0.0,1759.0,1753.0,95.13445281982422,-30.92046356201172,-59.31615447998047,Left
3760.619384765625,21567,1,1764.0,1773.0,1896.0,1595.0,1752.0,97.0,1762.0,1751.0,95.13445281982422,-30.92046356201172,-59.31615447998047,Left
3762.619384765625,21567,1,1775.0,1747.0,1861.0,1491.0,1709.0,1994.0,1759.0,1749.0,95.13445281982422,-30.92046356201172,-59.31615447998047,Left
3764.619384765625,21567,1,1753.0,1764.0,1961.0,1604.0,1747.0,2554.0,1759.0,1740.0,95.13445281982422,-30.92046356201172,-59.31615447998047,Left
3766.619384765625,21567,1,1751.0,1805.0,2059.0,1804.0,1781.0,3788.0,1762.0,1739.0,95.13445281982422,-30.92046356201172,-59.31615447998047,Left
3768.619384765625,21567,1,1755.0,1753.0,2045.0,1893.0,1745.0,3787.0,1759.0,1752.0,95.13445281982422,-30.92046356201172,-59.31615447998047,Left
3767.810302734375,21568,1,1762.0,1756.0,1912.0,1903.0,1747.0,3786.0,1755.0,1752.0,95.13445281982422,-30.92046356201172,-59.31615447998047,Left
3769.810302734375,21568,1,1753.0,1769.0,1721.0,1885.0,1767.0,3797.0,1757.0,1743.0,95.13445281982422,-30.92046356201172,-59.31615447998047,Left
3771.810302734375,21568,1,1753.0,1754.0,1759.0,1873.0,1740.0,3465.0,1759.0,1747.0,95.13445281982422,-30.92046356201172,-59.31615447998047,Left
3773.810302734375,21568,1,1751.0,1741.0,1721.0,1853.0,1735.0,2029.0,1757.0,1749.0,95.13445281982422,-30.92046356201172,-59.31615447998047,Left
3775.810302734375,21568,1,1755.0,1727.0,1719.0,1783.0,1742.0,1221.0,1759.0,1754.0,95.13445281982422,-30.92046356201172,-59.31615447998047,Left
3779.2353515625,21569,1,1764.0,1809.0,1659.0,1663.0,1785.0,1082.0,1759.0,1751.0,95.13445281982422,-30.92046356201172,-59.31615447998047,Left
3781.2353515625,21569,1,1767.0,1804.0,1776.0,1635.0,1785.0,1018.0,1759.0,1741.0,95.13445281982422,-30.92046356201172,-59.31615447998047,Left
3783.2353515625,21569,1,1752.0,1759.0,1749.0,1677.0,1741.0,985.0,1757.0,1747.0,95.13445281982422,-30.92046356201172,-59.31615447998047,Left
3785.2353515625,21569,1,1755.0,1751.0,1849.0,1775.0,1741.0,405.0,1758.0,1749.0,95.13445281982422,-30.92046356201172,-59.31615447998047,Left
3787.2353515625,21569,1,1749.0,1753.0,1867.0,1955.0,1738.0,379.0,1757.0,1741.0,95.13445281982422,-30.92046356201172,-59.31615447998047,Left
3786.763427734375,21570,1,1747.0,1741.0,1821.0,2013.0,1739.0,603.0,1748.0,1727.0,95.13445281982422,-30.92046356201172,-59.31615447998047,Left
3788.763427734375,21570,1,1755.0,1752.0,1681.0,1885.0,1743.0,521.0,1757.0,1752.0,95.13445281982422,-30.92046356201172,-59.31615447998047,Left
3790.763427734375,21570,1,1755.0,1752.0,1863.0,1852.0,1743.0,148.0,1764.0,1743.0,95.13445281982422,-30.92046356201172,-59.31615447998047,Left
3792.763427734375,21570,1,1757.0,1763.0,1685.0,1812.0,1748.0,0.0,1758.0,1759.0,95.13445281982422,-30.92046356201172,-59.31615447998047,Left
3794.763427734375,21570,1,1763.0,1765.0,1738.0,1773.0,1752.0,0.0,1757.0,1749.0,95.13445281982422,-30.92046356201172,-59.31615447998047,Left
3801.979736328125,21571,1,1757.0,1752.0,1628.0,1719.0,1751.0,0.0,1756.0,1752.0,95.13445281982422,-30.92046356201172,-59.31615447998047,Left
3803.979736328125,21571,1,1766.0,1763.0,1772.0,1652.0,1754.0,3363.0,1758.0,1763.0,95.13445281982422,-30.92046356201172,-59.31615447998047,Left
3805.979736328125,21571,1,1758.0,1758.0,1699.0,1675.0,1752.0,3795.0,1761.0,1741.0,95.13445281982422,-30.92046356201172,-59.31615447998047,Left
3807.979736328125,21571,1,1753.0,1757.0,1767.0,1737.0,1750.0,3259.0,1757.0,1747.0,95.13445281982422,-30.92046356201172,-59.31615447998047,Left
3809.979736328125,21571,1,1753.0,1755.0,1939.0,1849.0,1747.0,0.0,1759.0,1739.0,95.13445281982422,-30.92046356201172,-59.31615447998047,Left
3807.023681640625,21572,1,1754.0,1739.0,1836.0,1885.0,1753.0,0.0,1753.0,1733.0,95.13445281982422,-30.92046356201172,-59.31615447998047,Left
3809.023681640625,21572,1,1750.0,1753.0,1877.0,1836.0,1749.0,0.0,1759.0,1727.0,95.13445281982422,-30.92046356201172,-59.31615447998047,Left
3811.023681640625,21572,1,1751.0,1751.0,1885.0,1850.0,1740.0,0.0,1758.0,1741.0,95.13445281982422,-30.92046356201172,-59.31615447998047,Left
3813.023681640625,21572,1,1745.0,1755.0,2008.0,1816.0,1743.0,0.0,1757.0,1747.0,95.13445281982422,-30.92046356201172,-59.31615447998047,Left
3815.023681640625,21572,1,1753.0,1758.0,1899.0,1819.0,1749.0,0.0,1761.0,1741.0,97.61131286621094,-35.48185729980469,-57.86280059814453,Left
3861.598388671875,21573,1,1765.0,1759.0,1807.0,1565.0,1749.0,0.0,1753.0,1751.0,97.61131286621094,-35.48185729980469,-57.86280059814453,Left
3863.598388671875,21573,1,1767.0,1755.0,1755.0,1517.0,1752.0,3797.0,1756.0,1773.0,97.61131286621094,-35.48185729980469,-57.86280059814453,Left
3865.598388671875,21573,1,1773.0,1764.0,1767.0,1642.0,1757.0,3789.0,1759.0,1765.0,97.61131286621094,-35.48185729980469,-57.86280059814453,Left
3867.598388671875,21573,1,1768.0,1759.0,1718.0,1828.0,1756.0,3795.0,1757.0,1761.0,97.61131286621094,-35.48185729980469,-57.86280059814453,Left
3869.598388671875,21573,1,1755.0,1757.0,1772.0,1947.0,1753.0,529.0,1763.0,1739.0,97.61131286621094,-35.48185729980469,-57.86280059814453,Left
3862.6123046875,21574,1,1763.0,1759.0,1863.0,2027.0,1755.0,0.0,1753.0,1740.0,97.61131286621094,-35.48185729980469,-57.86280059814453,Left
3864.6123046875,21574,1,1751.0,1759.0,1836.0,1929.0,1751.0,0.0,1758.0,1749.0,97.61131286621094,-35.48185729980469,-57.86280059814453,Left
3866.6123046875,21574,1,1741.0,1752.0,1815.0,1915.0,1743.0,0.0,1759.0,1739.0,97.61131286621094,-35.48185729980469,-57.86280059814453,Left
3868.6123046875,21574,1,1752.0,1755.0,1741.0,1792.0,1747.0,0.0,1763.0,1743.0,97.61131286621094,-35.48185729980469,-57.86280059814453,Left
3870.6123046875,21574,1,1757.0,1757.0,1765.0,1763.0,1745.0,0.0,1758.0,1741.0,97.61131286621094,-35.48185729980469,-57.86280059814453,Left
3862.6123046875,21575,1,1763.0,1751.0,1595.0,1727.0,1747.0,217.0,1761.0,1749.0,97.61131286621094,-35.48185729980469,-57.86280059814453,Left
3864.6123046875,21575,1,1769.0,1757.0,1637.0,1775.0,1752.0,3795.0,1759.0,1755.0,97.61131286621094,-35.48185729980469,-57.86280059814453,Left
3866.6123046875,21575,1,1759.0,1763.0,1675.0,1836.0,1747.0,3795.0,1757.0,1741.0,97.61131286621094,-35.48185729980469,-57.86280059814453,Left
3868.6123046875,21575,1,1754.0,1755.0,1687.0,1991.0,1743.0,3799.0,1759.0,1742.0,97.61131286621094,-35.48185729980469,-57.86280059814453,Left
3870.6123046875,21575,1,1751.0,1763.0,1785.0,2169.0,1745.0,1427.0,1759.0,1747.0,97.61131286621094,-35.48185729980469,-57.86280059814453,Left
3863.605712890625,21576,1,1755.0,1749.0,1802.0,2232.0,1738.0,0.0,1757.0,1747.0,97.61131286621094,-35.48185729980469,-57.86280059814453,Left
3865.605712890625,21576,1,1751.0,1724.0,1739.0,2214.0,1727.0,0.0,1759.0,1755.0,97.61131286621094,-35.48185729980469,-57.86280059814453,Left
3867.605712890625,21576,1,1755.0,1764.0,1799.0,2119.0,1747.0,0.0,1756.0,1753.0,97.61131286621094,-35.48185729980469,-57.86280059814453,Left
3869.605712890625,21576,1,1757.0,1803.0,1698.0,1989.0,1771.0,0.0,1758.0,1734.0,97.61131286621094,-35.48185729980469,-57.86280059814453,Left
3871.605712890625,21576,1,1765.0,1759.0,1627.0,1975.0,1757.0,201.0,1759.0,1751.0,97.61131286621094,-35.48185729980469,-57.86280059814453,Left
3863.605712890625,21577,1,1757.0,1763.0,1677.0,1736.0,1742.0,1611.0,1750.0,1733.0,97.61131286621094,-35.48185729980469,-57.86280059814453,Left
3865.605712890625,21577,1,1750.0,1751.0,1515.0,1637.0,1749.0,3794.0,1755.0,1739.0,97.61131286621094,-35.48185729980469,-57.86280059814453,Left
3867.605712890625,21577,1,1743.0,1751.0,1875.0,1547.0,1739.0,3799.0,1759.0,1736.0,97.61131286621094,-35.48185729980469,-57.86280059814453,Left
3869.605712890625,21577,1,1757.0,1753.0,1863.0,1708.0,1750.0,3795.0,1759.0,1750.0,97.61131286621094,-35.48185729980469,-57.86280059814453,Left
3871.605712890625,21577,1,1757.0,1747.0,1835.0,1802.0,1755.0,1843.0,1757.0,1750.0,97.61131286621094,-35.48185729980469,-57.86280059814453,Left
3869.760498046875,21578,1,1757.0,1747.0,1941.0,1934.0,1739.0,0.0,1757.0,1738.0,97.61131286621094,-35.48185729980469,-57.86280059814453,Left
3871.760498046875,21578,1,1763.0,1753.0,1993.0,1849.0,1751.0,0.0,1755.0,1741.0,97.61131286621094,-35.48185729980469,-57.86280059814453,Left
3873.760498046875,21578,1,1765.0,1783.0,1865.0,1773.0,1773.0,0.0,1759.0,1749.0,97.61131286621094,-35.48185729980469,-57.86280059814453,Left
3875.760498046875,21578,1,1751.0,1755.0,1733.0,1719.0,1743.0,0.0,1757.0,1737.0,97.61131286621094,-35.48185729980469,-57.86280059814453,Left
3877.760498046875,21578,1,1750.0,1752.0,1723.0,1687.0,1739.0,221.0,1757.0,1755.0,97.61131286621094,-35.48185729980469,-57.86280059814453,Left
3876.218017578125,21579,1,1767.0,1741.0,1589.0,1467.0,1735.0,1865.0,1759.0,1755.0,97.61131286621094,-35.48185729980469,-57.86280059814453,Left
3878.218017578125,21579,1,1757.0,1721.0,1598.0,1415.0,1733.0,3791.0,1758.0,1742.0,102.2583236694336,-39.42604446411133,-55.9006462097168,Left
3880.218017578125,21579,1,1752.0,1767.0,1737.0,1500.0,1720.0,3790.0,1757.0,1737.0,102.2583236694336,-39.42604446411133,-55.9006462097168,Left
3882.218017578125,21579,1,1752.0,1735.0,1767.0,1739.0,1739.0,3795.0,1756.0,1736.0,102.2583236694336,-39.42604446411133,-55.9006462097168,Left
3884.218017578125,21579,1,1764.0,1749.0,1951.0,1773.0,1772.0,2111.0,1759.0,1759.0,102.2583236694336,-39.42604446411133,-55.9006462097168,Left
3887.790771484375,21580,1,1782.0,1799.0,1836.0,1733.0,1807.0,0.0,1756.0,1757.0,102.2583236694336,-39.42604446411133,-55.9006462097168,Left
3889.790771484375,21580,1,1768.0,1757.0,1695.0,1736.0,1771.0,0.0,1759.0,1753.0,102.2583236694336,-39.42604446411133,-55.9006462097168,Left
3891.790771484375,21580,1,1749.0,1741.0,1573.0,1745.0,1723.0,0.0,1759.0,1739.0,102.2583236694336,-39.42604446411133,-55.9006462097168,Left
3893.790771484375,21580,1,1741.0,1751.0,1563.0,1641.0,1737.0,0.0,1759.0,1746.0,102.2583236694336,-39.42604446411133,-55.9006462097168,Left
3895.790771484375,21580,1,1741.0,1743.0,1468.0,1619.0,1735.0,333.0,1757.0,1725.0,102.2583236694336,-39.42604446411133,-55.9006462097168,Left
3902.375732421875,21581,1,1751.0,1721.0,1597.0,1497.0,1724.0,2101.0,1755.0,1727.0,102.2583236694336,-39.42604446411133,-55.9006462097168,Left
3904.375732421875,21581,1,1753.0,1741.0,1575.0,1470.0,1739.0,3799.0,1759.0,1743.0,102.2583236694336,-39.42604446411133,-55.9006462097168,Left
3906.375732421875,21581,1,1765.0,1783.0,1503.0,1499.0,1763.0,3788.0,1747.0,1753.0,102.2583236694336,-39.42604446411133,-55.9006462097168,Left
3908.375732421875,21581,1,1768.0,1779.0,1671.0,1675.0,1765.0,3797.0,1759.0,1753.0,102.2583236694336,-39.42604446411133,-55.9006462097168,Left
3910.375732421875,21581,1,1757.0,1753.0,1657.0,1839.0,1740.0,2011.0,1757.0,1751.0,102.2583236694336,-39.42604446411133,-55.9006462097168,Left
3909.60498046875,21582,1,1749.0,1747.0,1688.0,1805.0,1733.0,0.0,1762.0,1725.0,102.2583236694336,-39.42604446411133,-55.9006462097168,Left
3911.60498046875,21582,1,1743.0,1737.0,1851.0,1821.0,1725.0,0.0,1759.0,1741.0,102.2583236694336,-39.42604446411133,-55.9006462097168,Left
3913.60498046875,21582,1,1756.0,1769.0,1843.0,1758.0,1751.0,0.0,1758.0,1757.0,102.2583236694336,-39.42604446411133,-55.9006462097168,Left
3915.60498046875,21582,1,1752.0,1767.0,1867.0,1694.0,1767.0,0.0,1757.0,1739.0,102.2583236694336,-39.42604446411133,-55.9006462097168,Left
3917.60498046875,21582,1,1787.0,1816.0,1719.0,1643.0,1837.0,101.0,1763.0,1765.0,102.2583236694336,-39.42604446411133,-55.9006462097168,Left
3917.848388671875,21583,1,1755.0,1741.0,1717.0,1501.0,1711.0,1753.0,1757.0,1743.0,102.2583236694336,-39.42604446411133,-55.9006462097168,Left
3919.848388671875,21583,1,1757.0,1747.0,1829.0,1434.0,1736.0,3797.0,1758.0,1745.0,102.2583236694336,-39.42604446411133,-55.9006462097168,Left
3921.848388671875,21583,1,1756.0,1768.0,1915.0,1465.0,1747.0,3797.0,1759.0,1749.0,102.2583236694336,-39.42604446411133,-55.9006462097168,Left
3923.848388671875,21583,1,1747.0,1757.0,2029.0,1688.0,1737.0,3799.0,1763.0,1739.0,102.2583236694336,-39.42604446411133,-55.9006462097168,Left
3925.848388671875,21583,1,1753.0,1757.0,2037.0,1773.0,1741.0,1983.0,1763.0,1741.0,102.2583236694336,-39.42604446411133,-55.9006462097168,Left
3959.286865234375,21584,1,1763.0,1753.0,2095.0,1941.0,1749.0,0.0,1757.0,1781.0,102.2583236694336,-39.42604446411133,-55.9006462097168,Left
3961.286865234375,21584,1,1765.0,1759.0,1961.0,1869.0,1745.0,0.0,1756.0,1747.0,102.2583236694336,-39.42604446411133,-55.9006462097168,Left
3963.286865234375,21584,1,1764.0,1757.0,1816.0,1757.0,1752.0,0.0,1757.0,1750.0,102.2583236694336,-39.42604446411133,-55.9006462097168,Left
3965.286865234375,21584,1,1763.0,1766.0,1638.0,1669.0,1761.0,0.0,1757.0,1743.0,102.2583236694336,-39.42604446411133,-55.9006462097168,Left
3967.286865234375,21584,1,1753.0,1765.0,1549.0,1620.0,1759.0,377.0,1757.0,1752.0,102.2583236694336,-39.42604446411133,-55.9006462097168,Left
3959.286865234375,21585,1,1751.0,1767.0,1507.0,1467.0,1751.0,2107.0,1761.0,1727.0,102.2583236694336,-39.42604446411133,-55.9006462097168,Left
3961.286865234375,21585,1,1752.0,1755.0,1549.0,1487.0,1745.0,3795.0,1756.0,1741.0,102.2583236694336,-39.42604446411133,-55.9006462097168,Left
3963.286865234375,21585,1,1753.0,1753.0,1671.0,1577.0,1743.0,3794.0,1759.0,1751.0,102.2583236694336,-39.42604446411133,-55.9006462097168,Left
3965.286865234375,21585,1,1752.0,1755.0,1578.0,1745.0,1743.0,3795.0,1758.0,1745.0,102.2583236694336,-39.42604446411133,-55.9006462097168,Left
3967.286865234375,21585,1,1756.0,1752.0,1817.0,1929.0,1742.0,1961.0,1759.0,1763.0,102.2583236694336,-39.42604446411133,-55.9006462097168,Left
3959.286865234375,21586,1,1753.0,1757.0,1827.0,1959.0,1753.0,0.0,1757.0,1746.0,102.2583236694336,-39.42604446411133,-55.9006462097168,Left
3961.286865234375,21586,1,1759.0,1771.0,1748.0,2007.0,1755.0,0.0,1756.0,1749.0,103.19403839111328,-42.84294891357422,-53.72780227661133,Left
3963.286865234375,21586,1,1750.0,1763.0,1695.0,1949.0,1743.0,0.0,1761.0,1740.0,103.19403839111328,-42.84294891357422,-53.72780227661133,Left
3965.286865234375,21586,1,1759.0,1759.0,1715.0,1853.0,1750.0,0.0,1763.0,1751.0,103.19403839111328,-42.84294891357422,-53.72780227661133,Left
3967.286865234375,21586,1,1752.0,1755.0,1613.0,1789.0,1749.0,501.0,1758.0,1752.0,103.19403839111328,-42.84294891357422,-53.72780227661133,Left
3959.286865234375,21587,1,1766.0,1752.0,1533.0,1629.0,1751.0,2293.0,1754.0,1746.0,103.19403839111328,-42.84294891357422,-53.72780227661133,Left
3961.286865234375,21587,1,1771.0,1757.0,1704.0,1578.0,1761.0,3791.0,1761.0,1747.0,103.19403839111328,-42.84294891357422,-53.72780227661133,Left
3963.286865234375,21587,1,1758.0,1755.0,1757.0,1559.0,1755.0,3791.0,1763.0,1755.0,103.19403839111328,-42.84294891357422,-53.72780227661133,Left
3965.286865234375,21587,1,1758.0,1751.0,1739.0,1806.0,1747.0,3797.0,1757.0,1735.0,103.19403839111328,-42.84294891357422,-53.72780227661133,Left
3967.286865234375,21587,1,1758.0,1757.0,1769.0,1919.0,1749.0,1943.0,1759.0,1747.0,103.19403839111328,-42.84294891357422,-53.72780227661133,Left
3968.602294921875,21588,1,1755.0,1755.0,1862.0,2044.0,1749.0,0.0,1759.0,1755.0,103.19403839111328,-42.84294891357422,-53.72780227661133,Left
3970.602294921875,21588,1,1764.0,1763.0,1848.0,1943.0,1755.0,0.0,1763.0,1755.0,103.19403839111328,-42.84294891357422,-53.72780227661133,Left
3972.602294921875,21588,1,1767.0,1757.0,1779.0,1885.0,1753.0,0.0,1762.0,1749.0,103.19403839111328,-42.84294891357422,-53.72780227661133,Left
3974.602294921875,21588,1,1749.0,1759.0,1839.0,1715.0,1747.0,0.0,1763.0,1743.0,103.19403839111328,-42.84294891357422,-53.72780227661133,Left
3976.602294921875,21588,1,1749.0,1736.0,1821.0,1605.0,1722.0,331.0,1758.0,1743.0,103.19403839111328,-42.84294891357422,-53.72780227661133,Left
3977.6123046875,21589,1,1749.0,1743.0,1710.0,1477.0,1738.0,2357.0,1757.0,1755.0,103.19403839111328,-42.84294891357422,-53.72780227661133,Left
3979.6123046875,21589,1,1763.0,1815.0,1629.0,1449.0,1799.0,3795.0,1759.0,1742.0,103.19403839111328,-42.84294891357422,-53.72780227661133,Left
3981.6123046875,21589,1,1762.0,1759.0,1582.0,1559.0,1754.0,3788.0,1757.0,1755.0,103.19403839111328,-42.84294891357422,-53.72780227661133,Left
3983.6123046875,21589,1,1763.0,1746.0,1621.0,1711.0,1740.0,3797.0,1759.0,1743.0,103.19403839111328,-42.84294891357422,-53.72780227661133,Left
3985.6123046875,21589,1,1757.0,1753.0,1701.0,1875.0,1742.0,1910.0,1759.0,1751.0,103.19403839111328,-42.84294891357422,-53.72780227661133,Left
3988.87353515625,21590,1,1763.0,1751.0,1643.0,1925.0,1766.0,0.0,1757.0,1746.0,103.19403839111328,-42.84294891357422,-53.72780227661133,Left
3990.87353515625,21590,1,1753.0,1627.0,1756.0,1885.0,1747.0,0.0,1758.0,1750.0,103.19403839111328,-42.84294891357422,-53.72780227661133,Left
3992.87353515625,21590,1,1767.0,1641.0,1734.0,1869.0,1756.0,0.0,1763.0,1749.0,103.19403839111328,-42.84294891357422,-53.72780227661133,Left
3994.87353515625,21590,1,1765.0,1673.0,1800.0,1787.0,1755.0,0.0,1757.0,1755.0,103.19403839111328,-42.84294891357422,-53.72780227661133,Left
3996.87353515625,21590,1,1756.0,1701.0,1739.0,1707.0,1741.0,454.0,1759.0,1751.0,103.19403839111328,-42.84294891357422,-53.72780227661133,Left
3999.874755859375,21591,1,1757.0,1735.0,1848.0,1558.0,1746.0,2738.0,1759.0,1727.0,103.19403839111328,-42.84294891357422,-53.72780227661133,Left
4001.874755859375,21591,1,1756.0,1747.0,1695.0,1496.0,1751.0,3801.0,1759.0,1740.0,103.19403839111328,-42.84294891357422,-53.72780227661133,Left
4003.874755859375,21591,1,1764.0,1742.0,1695.0,1553.0,1756.0,3791.0,1757.0,1743.0,103.19403839111328,-42.84294891357422,-53.72780227661133,Left
4005.874755859375,21591,1,1775.0,1735.0,1827.0,1749.0,1749.0,3797.0,1762.0,1743.0,103.19403839111328,-42.84294891357422,-53.72780227661133,Left
4007.874755859375,21591,1,1764.0,1719.0,1955.0,1875.0,1747.0,1676.0,1764.0,1752.0,103.19403839111328,-42.84294891357422,-53.72780227661133,Left
4007.708740234375,21592,1,1749.0,1725.0,2066.0,2007.0,1741.0,0.0,1759.0,1739.0,103.19403839111328,-42.84294891357422,-53.72780227661133,Left
4009.708740234375,21592,1,1747.0,1749.0,1957.0,1909.0,1742.0,0.0,1763.0,1751.0,103.19403839111328,-42.84294891357422,-53.72780227661133,Left
4011.708740234375,21592,1,1764.0,1773.0,2019.0,1849.0,1752.0,0.0,1763.0,1743.0,103.19403839111328,-42.84294891357422,-53.72780227661133,Left
4013.708740234375,21592,1,1756.0,1784.0,2077.0,1843.0,1748.0,0.0,1761.0,1741.0,103.3697509765625,-44.75361633300781,-51.56706237792969,Left
4015.708740234375,21592,1,1759.0,1788.0,1833.0,1739.0,1746.0,676.0,1763.0,1750.0,103.3697509765625,-44.75361633300781,-51.56706237792969,Left
4017.82958984375,21593,1,1751.0,1784.0,1781.0,1629.0,1747.0,2987.0,1762.0,1781.0,103.3697509765625,-44.75361633300781,-51.56706237792969,Left
4019.82958984375,21593,1,1772.0,1779.0,1753.0,1558.0,1753.0,3797.0,1763.0,1765.0,103.3697509765625,-44.75361633300781,-51.56706237792969,Left
4021.82958984375,21593,1,1771.0,1787.0,1739.0,1653.0,1752.0,3786.0,1751.0,1759.0,103.3697509765625,-44.75361633300781,-51.56706237792969,Left
4023.82958984375,21593,1,1763.0,1797.0,1677.0,1791.0,1752.0,3796.0,1763.0,1751.0,103.3697509765625,-44.75361633300781,-51.56706237792969,Left
4025.82958984375,21593,1,1759.0,1802.0,1838.0,1901.0,1752.0,1785.0,1757.0,1749.0,103.3697509765625,-44.75361633300781,-51.56706237792969,Left
4025.904052734375,21594,1,1741.0,1784.0,1813.0,2009.0,1742.0,0.0,1761.0,1721.0,103.3697509765625,-44.75361633300781,-51.56706237792969,Left
4027.904052734375,21594,1,1748.0,1791.0,1815.0,1959.0,1756.0,0.0,1761.0,1743.0,103.3697509765625,-44.75361633300781,-51.56706237792969,Left
4029.904052734375,21594,1,1758.0,1788.0,1659.0,1882.0,1756.0,0.0,1758.0,1757.0,103.3697509765625,-44.75361633300781,-51.56706237792969,Left
4031.904052734375,21594,1,1763.0,1789.0,1790.0,1727.0,1759.0,0.0,1759.0,1771.0,103.3697509765625,-44.75361633300781,-51.56706237792969,Left
4033.904052734375,21594,1,1764.0,1787.0,1597.0,1646.0,1757.0,539.0,1757.0,1752.0,103.3697509765625,-44.75361633300781,-51.56706237792969,Left
4037.47412109375,21595,1,1749.0,1784.0,1525.0,1589.0,1745.0,2953.0,1759.0,1749.0,103.3697509765625,-44.75361633300781,-51.56706237792969,Left
4039.47412109375,21595,1,1768.0,1775.0,1483.0,1464.0,1755.0,3787.0,1759.0,1752.0,103.3697509765625,-44.75361633300781,-51.56706237792969,Left
4041.47412109375,21595,1,1757.0,1773.0,1471.0,1529.0,1741.0,3795.0,1759.0,1727.0,103.3697509765625,-44.75361633300781,-51.56706237792969,Left
4043.47412109375,21595,1,1741.0,1761.0,1514.0,1675.0,1739.0,3796.0,1757.0,1727.0,103.3697509765625,-44.75361633300781,-51.56706237792969,Left
4045.47412109375,21595,1,1755.0,1758.0,1608.0,1799.0,1747.0,1235.0,1759.0,1752.0,103.3697509765625,-44.75361633300781,-51.56706237792969,Left
4121.0205078125,21596,1,1747.0,1751.0,1727.0,1917.0,1749.0,0.0,1763.0,1726.0,103.3697509765625,-44.75361633300781,-51.56706237792969,Left
4123.0205078125,21596,1,1755.0,1755.0,1720.0,1877.0,1751.0,0.0,1757.0,1747.0,103.3697509765625,-44.75361633300781,-51.56706237792969,Left
4125.0205078125,21596,1,1755.0,1765.0,1725.0,1962.0,1749.0,0.0,1763.0,1751.0,103.3697509765625,-44.75361633300781,-51.56706237792969,Left
4127.0205078125,21596,1,1772.0,1763.0,1913.0,1869.0,1753.0,0.0,1759.0,1757.0,103.3697509765625,-44.75361633300781,-51.56706237792969,Left
4129.0205078125,21596,1,1767.0,1767.0,1932.0,1800.0,1751.0,313.0,1759.0,1753.0,103.3697509765625,-44.75361633300781,-51.56706237792969,Left
4122.03271484375,21597,1,1755.0,1752.0,1763.0,1709.0,1741.0,2605.0,1758.0,1742.0,103.3697509765625,-44.75361633300781,-51.56706237792969,Left
4124.03271484375,21597,1,1767.0,1763.0,1840.0,1641.0,1745.0,3795.0,1763.0,1737.0,103.3697509765625,-44.75361633300781,-51.56706237792969,Left
4126.03271484375,21597,1,1753.0,1753.0,1769.0,1652.0,1740.0,3789.0,1755.0,1735.0,103.3697509765625,-44.75361633300781,-51.56706237792969,Left
4128.03271484375,21597,1,1765.0,1781.0,1980.0,1780.0,1772.0,3799.0,1759.0,1748.0,103.3697509765625,-44.75361633300781,-51.56706237792969,Left
4130.03271484375,21597,1,1752.0,1759.0,1809.0,1885.0,1742.0,774.0,1759.0,1747.0,103.3697509765625,-44.75361633300781,-51.56706237792969,Left
4122.03271484375,21598,1,1759.0,1757.0,1716.0,1836.0,1750.0,0.0,1753.0,1741.0,103.3697509765625,-44.75361633300781,-51.56706237792969,Left
4124.03271484375,21598,1,1757.0,1755.0,1560.0,1798.0,1748.0,0.0,1757.0,1745.0,103.3697509765625,-44.75361633300781,-51.56706237792969,Left
4126.03271484375,21598,1,1753.0,1753.0,1553.0,1824.0,1750.0,0.0,1759.0,1747.0,103.3697509765625,-44.75361633300781,-51.56706237792969,Left
4128.03271484375,21598,1,1755.0,1756.0,1438.0,1732.0,1745.0,219.0,1758.0,1751.0,103.3697509765625,-44.75361633300781,-51.56706237792969,Left
4130.03271484375,21598,1,1753.0,1763.0,1253.0,1655.0,1747.0,495.0,1755.0,1749.0,103.3697509765625,-44.75361633300781,-51.56706237792969,Left
4123.02978515625,21599,1,1757.0,1743.0,1299.0,1619.0,1737.0,3127.0,1749.0,1747.0,103.3697509765625,-44.75361633300781,-51.56706237792969,Left
4125.02978515625,21599,1,1773.0,1764.0,1391.0,1571.0,1753.0,3794.0,1762.0,1752.0,104.17405700683594,-45.46142578125,-49.72228240966797,Left
4127.02978515625,21599,1,1779.0,1771.0,1629.0,1625.0,1757.0,3797.0,1757.0,1753.0,104.17405700683594,-45.46142578125,-49.72228240966797,Left
4129.02978515625,21599,1,1763.0,1766.0,1855.0,1822.0,1751.0,3795.0,1761.0,1752.0,104.17405700683594,-45.46142578125,-49.72228240966797,Left
4131.02978515625,21599,1,1758.0,1763.0,1689.0,1944.0,1746.0,601.0,1763.0,1739.0,104.17405700683594,-45.46142578125,-49.72228240966797,Left
4123.02978515625,21600,1,1749.0,1752.0,1657.0,1950.0,1743.0,0.0,1757.0,1743.0,104.17405700683594,-45.46142578125,-49.72228240966797,Left
4125.02978515625,21600,1,1755.0,1765.0,1855.0,1989.0,1752.0,0.0,1759.0,1741.0,104.17405700683594,-45.46142578125,-49.72228240966797,Left
4127.02978515625,21600,1,1757.0,1763.0,1734.0,1919.0,1752.0,0.0,1757.0,1755.0,104.17405700683594,-45.46142578125,-49.72228240966797,Left
4129.02978515625,21600,1,1751.0,1765.0,1746.0,1801.0,1747.0,292.0,1759.0,1747.0,104.17405700683594,-45.46142578125,-49.72228240966797,Left
4131.02978515625,21600,1,1755.0,1772.0,1493.0,1725.0,1753.0,560.0,1757.0,1755.0,104.17405700683594,-45.46142578125,-49.72228240966797,Left
4123.02978515625,21601,1,1763.0,1759.0,1737.0,1598.0,1749.0,3384.0,1753.0,1750.0,104.17405700683594,-45.46142578125,-49.72228240966797,Left
4125.02978515625,21601,1,1754.0,1757.0,1725.0,1528.0,1741.0,3795.0,1759.0,1740.0,104.17405700683594,-45.46142578125,-49.72228240966797,Left
4127.02978515625,21601,1,1749.0,1762.0,1621.0,1576.0,1747.0,3795.0,1765.0,1733.0,104.17405700683594,-45.46142578125,-49.72228240966797,Left
4129.02978515625,21601,1,1749.0,1765.0,1743.0,1740.0,1745.0,3796.0,1759.0,1743.0,104.17405700683594,-45.46142578125,-49.72228240966797,Left
4131.02978515625,21601,1,1749.0,1757.0,1767.0,1880.0,1745.0,971.0,1761.0,1751.0,104.17405700683594,-45.46142578125,-49.72228240966797,Left
4124.0302734375,21602,1,1771.0,1761.0,1755.0,1972.0,1756.0,0.0,1747.0,1743.0,104.17405700683594,-45.46142578125,-49.72228240966797,Left
4126.0302734375,21602,1,1765.0,1767.0,1773.0,1912.0,1759.0,0.0,1757.0,1758.0,104.17405700683594,-45.46142578125,-49.72228240966797,Left
4128.0302734375,21602,1,1767.0,1759.0,1809.0,1892.0,1781.0,0.0,1751.0,1747.0,104.17405700683594,-45.46142578125,-49.72228240966797,Left
4130.0302734375,21602,1,1751.0,1755.0,1659.0,1711.0,1747.0,201.0,1759.0,1739.0,104.17405700683594,-45.46142578125,-49.72228240966797,Left
4132.0302734375,21602,1,1753.0,1752.0,1773.0,1715.0,1741.0,559.0,1759.0,1749.0,104.17405700683594,-45.46142578125,-49.72228240966797,Left
4124.0302734375,21603,1,1752.0,1748.0,1811.0,1561.0,1752.0,3644.0,1772.0,1749.0,104.17405700683594,-45.46142578125,-49.72228240966797,Left
4126.0302734375,21603,1,1765.0,1753.0,1746.0,1523.0,1753.0,3795.0,1762.0,1750.0,104.17405700683594,-45.46142578125,-49.72228240966797,Left
4128.0302734375,21603,1,1765.0,1767.0,1734.0,1581.0,1757.0,3789.0,1758.0,1749.0,104.17405700683594,-45.46142578125,-49.72228240966797,Left
4130.0302734375,21603,1,1765.0,1767.0,1695.0,1719.0,1752.0,3797.0,1757.0,1747.0,104.17405700683594,-45.46142578125,-49.72228240966797,Left
4132.0302734375,21603,1,1755.0,1755.0,1817.0,1781.0,1743.0,854.0,1763.0,1743.0,104.17405700683594,-45.46142578125,-49.72228240966797,Left
4128.31787109375,21604,1,1749.0,1763.0,1911.0,1818.0,1749.0,0.0,1762.0,1743.0,104.17405700683594,-45.46142578125,-49.72228240966797,Left
4130.31787109375,21604,1,1764.0,1759.0,1875.0,1789.0,1749.0,0.0,1757.0,1741.0,104.17405700683594,-45.46142578125,-49.72228240966797,Left
4132.31787109375,21604,1,1757.0,1850.0,2059.0,1865.0,1751.0,0.0,1755.0,1753.0,104.17405700683594,-45.46142578125,-49.72228240966797,Left
4134.31787109375,21604,1,1752.0,1861.0,1995.0,1791.0,1747.0,140.0,1757.0,1737.0,104.17405700683594,-45.46142578125,-49.72228240966797,Left
4136.31787109375,21604,1,1771.0,1833.0,1931.0,1715.0,1763.0,815.0,1757.0,1770.0,104.17405700683594,-45.46142578125,-49.72228240966797,Left
4139.3095703125,21605,1,1757.0,1804.0,1930.0,1558.0,1755.0,3795.0,1759.0,1754.0,104.17405700683594,-45.46142578125,-49.72228240966797,Left
4141.3095703125,21605,1,1757.0,1779.0,1915.0,1511.0,1748.0,3788.0,1758.0,1739.0,104.17405700683594,-45.46142578125,-49.72228240966797,Left
4143.3095703125,21605,1,1752.0,1755.0,1803.0,1587.0,1747.0,3791.0,1763.0,1739.0,104.17405700683594,-45.46142578125,-49.72228240966797,Left
4145.3095703125,21605,1,1752.0,1751.0,1791.0,1812.0,1751.0,3800.0,1757.0,1742.0,104.17405700683594,-45.46142578125,-49.72228240966797,Left
4147.3095703125,21605,1,1755.0,1749.0,1623.0,1931.0,1747.0,887.0,1759.0,1743.0,104.17405700683594,-45.46142578125,-49.72228240966797,Left
4147.58935546875,21606,1,1759.0,1752.0,1751.0,1963.0,1747.0,0.0,1762.0,1743.0,104.17405700683594,-45.46142578125,-49.72228240966797,Left
4149.58935546875,21606,1,1757.0,1751.0,1787.0,1957.0,1747.0,0.0,1758.0,1753.0,105.22576141357422,-45.61661148071289,-48.23247146606445,Left
4151.58935546875,21606,1,1749.0,1752.0,1685.0,1851.0,1755.0,0.0,1763.0,1753.0,105.22576141357422,-45.61661148071289,-48.23247146606445,Left
4153.58935546875,21606,1,1748.0,1747.0,1643.0,1671.0,1749.0,0.0,1761.0,1736.0,105.22576141357422,-45.61661148071289,-48.23247146606445,Left
4155.58935546875,21606,1,1755.0,1747.0,1817.0,1619.0,1755.0,701.0,1758.0,1748.0,105.22576141357422,-45.61661148071289,-48.23247146606445,Left
4158.81298828125,21607,1,1757.0,1735.0,1723.0,1576.0,1753.0,3795.0,1757.0,1751.0,105.22576141357422,-45.61661148071289,-48.23247146606445,Left
4160.81298828125,21607,1,1758.0,1750.0,1827.0,1531.0,1751.0,3788.0,1759.0,1743.0,105.22576141357422,-45.61661148071289,-48.23247146606445,Left
4162.81298828125,21607,1,1753.0,1749.0,1903.0,1581.0,1756.0,3795.0,1755.0,1739.0,105.22576141357422,-45.61661148071289,-48.23247146606445,Left
4164.81298828125,21607,1,1752.0,1751.0,1711.0,1845.0,1747.0,3795.0,1759.0,1741.0,105.22576141357422,-45.61661148071289,-48.23247146606445,Left
4166.81298828125,21607,1,1758.0,1752.0,1832.0,1965.0,1747.0,1011.0,1757.0,1747.0,105.22576141357422,-45.61661148071289,-48.23247146606445,Left
4211.1865234375,21608,1,1770.0,1751.0,1811.0,1971.0,1747.0,0.0,1759.0,1758.0,105.22576141357422,-45.61661148071289,-48.23247146606445,Left
4213.1865234375,21608,1,1768.0,1755.0,1885.0,1899.0,1759.0,0.0,1757.0,1757.0,105.22576141357422,-45.61661148071289,-48.23247146606445,Left
4215.1865234375,21608,1,1763.0,1753.0,1947.0,1823.0,1755.0,0.0,1759.0,1754.0,105.22576141357422,-45.61661148071289,-48.23247146606445,Left
4217.1865234375,21608,1,1747.0,1754.0,1897.0,1723.0,1747.0,0.0,1759.0,1746.0,105.22576141357422,-45.61661148071289,-48.23247146606445,Left
4219.1865234375,21608,1,1757.0,1755.0,1838.0,1704.0,1751.0,885.0,1759.0,1751.0,105.22576141357422,-45.61661148071289,-48.23247146606445,Left
4212.169921875,21609,1,1753.0,1743.0,1835.0,1541.0,1748.0,3797.0,1759.0,1747.0,105.22576141357422,-45.61661148071289,-48.23247146606445,Left
4214.169921875,21609,1,1766.0,1750.0,1788.0,1479.0,1753.0,3793.0,1757.0,1746.0,105.22576141357422,-45.61661148071289,-48.23247146606445,Left
4216.169921875,21609,1,1753.0,1749.0,1523.0,1579.0,1749.0,3790.0,1767.0,1739.0,105.22576141357422,-45.61661148071289,-48.23247146606445,Left
4218.169921875,21609,1,1757.0,1757.0,1527.0,1701.0,1752.0,3796.0,1755.0,1746.0,105.22576141357422,-45.61661148071289,-48.23247146606445,Left
4220.169921875,21609,1,1763.0,1755.0,1559.0,1743.0,1754.0,858.0,1757.0,1755.0,105.22576141357422,-45.61661148071289,-48.23247146606445,Left
4212.169921875,21610,1,1765.0,1757.0,1547.0,1821.0,1755.0,0.0,1757.0,1757.0,105.22576141357422,-45.61661148071289,-48.23247146606445,Left
4214.169921875,21610,1,1771.0,1757.0,1763.0,1784.0,1750.0,0.0,1759.0,1755.0,105.22576141357422,-45.61661148071289,-48.23247146606445,Left
4216.169921875,21610,1,1753.0,1756.0,1756.0,1869.0,1748.0,0.0,1758.0,1750.0,105.22576141357422,-45.61661148071289,-48.23247146606445,Left
4218.169921875,21610,1,1764.0,1763.0,1823.0,1791.0,1753.0,0.0,1761.0,1747.0,105.22576141357422,-45.61661148071289,-48.23247146606445,Left
4220.169921875,21610,1,1764.0,1765.0,1593.0,1752.0,1752.0,791.0,1762.0,1745.0,105.22576141357422,-45.61661148071289,-48.23247146606445,Left
4212.169921875,21611,1,1739.0,1765.0,1611.0,1596.0,1752.0,3793.0,1757.0,1747.0,105.22576141357422,-45.61661148071289,-48.23247146606445,Left
4214.169921875,21611,1,1756.0,1749.0,1510.0,1525.0,1748.0,3797.0,1757.0,1739.0,105.22576141357422,-45.61661148071289,-48.23247146606445,Left
4216.169921875,21611,1,1753.0,1739.0,1545.0,1582.0,1750.0,3791.0,1759.0,1751.0,105.22576141357422,-45.61661148071289,-48.23247146606445,Left
4218.169921875,21611,1,1767.0,1741.0,1719.0,1775.0,1753.0,3797.0,1762.0,1753.0,105.22576141357422,-45.61661148071289,-48.23247146606445,Left
4220.169921875,21611,1,1754.0,1755.0,1743.0,1896.0,1751.0,221.0,1759.0,1745.0,105.22576141357422,-45.61661148071289,-48.23247146606445,Left
4212.169921875,21612,1,1750.0,1755.0,1780.0,1942.0,1749.0,0.0,1759.0,1743.0,105.22576141357422,-45.61661148071289,-48.23247146606445,Left
4214.169921875,21612,1,1752.0,1765.0,1597.0,2025.0,1752.0,0.0,1757.0,1737.0,105.22576141357422,-45.61661148071289,-48.23247146606445,Left
4216.169921875,21612,1,1753.0,1775.0,1524.0,1903.0,1764.0,0.0,1759.0,1752.0,105.22576141357422,-45.61661148071289,-48.23247146606445,Left
4218.169921875,21612,1,1759.0,1769.0,1651.0,1823.0,1761.0,0.0,1762.0,1755.0,105.68475341796875,-45.783172607421875,-47.33912658691406,Left
4220.169921875,21612,1,1755.0,1765.0,1545.0,1767.0,1751.0,355.0,1759.0,1759.0,105.68475341796875,-45.783172607421875,-47.33912658691406,Left
4216.16845703125,21613,1,1753.0,1735.0,1723.0,1625.0,1746.0,3639.0,1759.0,1752.0,105.68475341796875,-45.783172607421875,-47.33912658691406,Left
4218.16845703125,21613,1,1751.0,1723.0,1786.0,1555.0,1735.0,3795.0,1755.0,1742.0,105.68475341796875,-45.783172607421875,-47.33912658691406,Left
4220.16845703125,21613,1,1775.0,1741.0,1771.0,1604.0,1752.0,3787.0,1759.0,1748.0,105.68475341796875,-45.783172607421875,-47.33912658691406,Left
4222.16845703125,21613,1,1781.0,1763.0,1911.0,1758.0,1750.0,3799.0,1757.0,1745.0,105.68475341796875,-45.783172607421875,-47.33912658691406,Left
4224.16845703125,21613,1,1752.0,1766.0,1962.0,1837.0,1763.0,158.0,1757.0,1753.0,105.68475341796875,-45.783172607421875,-47.33912658691406,Left
4227.99169921875,21614,1,1765.0,1783.0,1866.0,1860.0,1759.0,0.0,1763.0,1752.0,105.68475341796875,-45.783172607421875,-47.33912658691406,Left
4229.99169921875,21614,1,1753.0,1779.0,1805.0,1837.0,1754.0,0.0,1759.0,1748.0,105.68475341796875,-45.783172607421875,-47.33912658691406,Left
4231.99169921875,21614,1,1765.0,1769.0,1847.0,1756.0,1750.0,0.0,1759.0,1747.0,105.68475341796875,-45.783172607421875,-47.33912658691406,Left
4233.99169921875,21614,1,1753.0,1751.0,1706.0,1670.0,1751.0,121.0,1757.0,1746.0,105.68475341796875,-45.783172607421875,-47.33912658691406,Left
4235.99169921875,21614,1,1759.0,1727.0,1951.0,1611.0,1737.0,425.0,1758.0,1743.0,105.68475341796875,-45.783172607421875,-47.33912658691406,Left
4236.06982421875,21615,1,1747.0,1717.0,1816.0,1563.0,1733.0,3798.0,1761.0,1741.0,105.68475341796875,-45.783172607421875,-47.33912658691406,Left
4238.06982421875,21615,1,1752.0,1749.0,1733.0,1531.0,1737.0,3788.0,1759.0,1747.0,105.68475341796875,-45.783172607421875,-47.33912658691406,Left
4240.06982421875,21615,1,1753.0,1742.0,1816.0,1595.0,1737.0,3797.0,1758.0,1745.0,105.68475341796875,-45.783172607421875,-47.33912658691406,Left
4242.06982421875,21615,1,1771.0,1761.0,1591.0,1774.0,1756.0,3800.0,1762.0,1757.0,105.68475341796875,-45.783172607421875,-47.33912658691406,Left
4244.06982421875,21615,1,1765.0,1779.0,1817.0,1880.0,1757.0,285.0,1763.0,1751.0,105.68475341796875,-45.783172607421875,-47.33912658691406,Left
4247.62548828125,21616,1,1754.0,1763.0,1933.0,1891.0,1748.0,0.0,1763.0,1747.0,105.68475341796875,-45.783172607421875,-47.33912658691406,Left
4249.62548828125,21616,1,1750.0,1756.0,1991.0,1875.0,1741.0,0.0,1757.0,1741.0,105.68475341796875,-45.783172607421875,-47.33912658691406,Left
4251.62548828125,21616,1,1756.0,1769.0,1947.0,1803.0,1754.0,0.0,1759.0,1751.0,105.68475341796875,-45.783172607421875,-47.33912658691406,Left
4253.62548828125,21616,1,1759.0,1771.0,1866.0,1679.0,1749.0,190.0,1759.0,1741.0,105.68475341796875,-45.783172607421875,-47.33912658691406,Left
4255.62548828125,21616,1,1763.0,1775.0,1741.0,1681.0,1763.0,483.0,1759.0,1755.0,105.68475341796875,-45.783172607421875,-47.33912658691406,Left
4257.85107421875,21617,1,1756.0,1763.0,1720.0,1489.0,1752.0,3772.0,1754.0,1745.0,105.68475341796875,-45.783172607421875,-47.33912658691406,Left
4259.85107421875,21617,1,1765.0,1765.0,1619.0,1453.0,1755.0,3793.0,1759.0,1752.0,105.68475341796875,-45.783172607421875,-47.33912658691406,Left
4261.85107421875,21617,1,1756.0,1763.0,1821.0,1590.0,1747.0,3788.0,1759.0,1747.0,105.68475341796875,-45.783172607421875,-47.33912658691406,Left
4263.85107421875,21617,1,1753.0,1755.0,1704.0,1759.0,1741.0,3789.0,1758.0,1733.0,105.68475341796875,-45.783172607421875,-47.33912658691406,Left
4265.85107421875,21617,1,1764.0,1765.0,1739.0,1869.0,1757.0,565.0,1759.0,1752.0,105.68475341796875,-45.783172607421875,-47.33912658691406,Left
4275.4208984375,21618,1,1753.0,1758.0,1772.0,1876.0,1747.0,0.0,1759.0,1747.0,105.68475341796875,-45.783172607421875,-47.33912658691406,Left
4277.4208984375,21618,1,1749.0,1759.0,1670.0,1896.0,1749.0,0.0,1759.0,1733.0,105.68475341796875,-45.783172607421875,-47.33912658691406,Left
4279.4208984375,21618,1,1752.0,1765.0,1701.0,1885.0,1747.0,0.0,1756.0,1743.0,105.68475341796875,-45.783172607421875,-47.33912658691406,Left
4281.4208984375,21618,1,1752.0,1759.0,1703.0,1867.0,1747.0,149.0,1755.0,1749.0,105.68475341796875,-45.783172607421875,-47.33912658691406,Left
4283.4208984375,21618,1,1763.0,1759.0,1805.0,1815.0,1752.0,597.0,1763.0,1753.0,105.68475341796875,-45.783172607421875,-47.33912658691406,Left
4277.41455078125,21619,1,1751.0,1752.0,1692.0,1689.0,1754.0,3791.0,1758.0,1757.0,105.68475341796875,-45.783172607421875,-47.33912658691406,Left
4279.41455078125,21619,1,1763.0,1756.0,1935.0,1637.0,1749.0,3788.0,1759.0,1746.0,106.51396179199219,-45.89501953125,-47.269744873046875,Left
4281.41455078125,21619,1,1753.0,1765.0,1791.0,1627.0,1755.0,3791.0,1757.0,1737.0,106.51396179199219,-45.89501953125,-47.269744873046875,Left
4283.41455078125,21619,1,1753.0,1758.0,1828.0,1745.0,1751.0,3800.0,1759.0,1749.0,106.51396179199219,-45.89501953125,-47.269744873046875,Left
4285.41455078125,21619,1,1764.0,1766.0,1718.0,1874.0,1755.0,679.0,1762.0,1764.0,106.51396179199219,-45.89501953125,-47.269744873046875,Left
4307.08447265625,21620,1,1763.0,1753.0,1684.0,1894.0,1755.0,0.0,1761.0,1751.0,106.51396179199219,-45.89501953125,-47.269744873046875,Left
4309.08447265625,21620,1,1757.0,1756.0,1779.0,1884.0,1753.0,0.0,1757.0,1749.0,106.51396179199219,-45.89501953125,-47.269744873046875,Left
4311.08447265625,21620,1,1755.0,1755.0,1935.0,1876.0,1747.0,0.0,1761.0,1740.0,106.51396179199219,-45.89501953125,-47.269744873046875,Left
4313.08447265625,21620,1,1755.0,1752.0,1855.0,1861.0,1747.0,47.0,1775.0,1750.0,106.51396179199219,-45.89501953125,-47.269744873046875,Left
4315.08447265625,21620,1,1764.0,1756.0,1735.0,1833.0,1752.0,885.0,1758.0,1756.0,106.51396179199219,-45.89501953125,-47.269744873046875,Left
4308.1123046875,21621,1,1752.0,1749.0,1798.0,1719.0,1747.0,3804.0,1759.0,1755.0,106.51396179199219,-45.89501953125,-47.269744873046875,Left
4310.1123046875,21621,1,1768.0,1763.0,1767.0,1685.0,1759.0,3791.0,1758.0,1751.0,106.51396179199219,-45.89501953125,-47.269744873046875,Left
4312.1123046875,21621,1,1775.0,1765.0,1689.0,1691.0,1753.0,3789.0,1757.0,1746.0,106.51396179199219,-45.89501953125,-47.269744873046875,Left
4314.1123046875,21621,1,1763.0,1757.0,1830.0,1855.0,1751.0,3796.0,1763.0,1737.0,106.51396179199219,-45.89501953125,-47.269744873046875,Left
4316.1123046875,21621,1,1749.0,1753.0,1848.0,1937.0,1743.0,1013.0,1759.0,1735.0,106.51396179199219,-45.89501953125,-47.269744873046875,Left
4308.1123046875,21622,1,1753.0,1756.0,1928.0,2059.0,1743.0,0.0,1758.0,1740.0,106.51396179199219,-45.89501953125,-47.269744873046875,Left
4310.1123046875,21622,1,1755.0,1757.0,1961.0,2008.0,1747.0,0.0,1761.0,1753.0,106.51396179199219,-45.89501953125,-47.269744873046875,Left
4312.1123046875,21622,1,1757.0,1761.0,1779.0,1995.0,1747.0,0.0,1759.0,1763.0,106.51396179199219,-45.89501953125,-47.269744873046875,Left
4314.1123046875,21622,1,1759.0,1755.0,1960.0,1837.0,1748.0,0.0,1759.0,1749.0,106.51396179199219,-45.89501953125,-47.269744873046875,Left
4316.1123046875,21622,1,1758.0,1763.0,2045.0,1801.0,1754.0,630.0,1763.0,1753.0,106.51396179199219,-45.89501953125,-47.269744873046875,Left
4317.8740234375,21623,1,1753.0,1761.0,1763.0,1559.0,1751.0,3730.0,1759.0,1749.0,106.51396179199219,-45.89501953125,-47.269744873046875,Left
4319.8740234375,21623,1,1751.0,1757.0,1609.0,1491.0,1749.0,3791.0,1763.0,1743.0,106.51396179199219,-45.89501953125,-47.269744873046875,Left
4321.8740234375,21623,1,1753.0,1757.0,1716.0,1577.0,1749.0,3794.0,1759.0,1723.0,106.51396179199219,-45.89501953125,-47.269744873046875,Left
4323.8740234375,21623,1,1756.0,1753.0,1806.0,1691.0,1747.0,3795.0,1763.0,1747.0,106.51396179199219,-45.89501953125,-47.269744873046875,Left
4325.8740234375,21623,1,1752.0,1756.0,1706.0,1815.0,1763.0,357.0,1757.0,1747.0,106.51396179199219,-45.89501953125,-47.269744873046875,Left
4328.68310546875,21624,1,1753.0,1757.0,1765.0,1853.0,1751.0,0.0,1761.0,1754.0,106.51396179199219,-45.89501953125,-47.269744873046875,Left
4330.68310546875,21624,1,1759.0,1756.0,1629.0,1913.0,1753.0,0.0,1762.0,1758.0,106.51396179199219,-45.89501953125,-47.269744873046875,Left
4332.68310546875,21624,1,1765.0,1757.0,1727.0,1865.0,1745.0,0.0,1762.0,1756.0,106.51396179199219,-45.89501953125,-47.269744873046875,Left
4334.68310546875,21624,1,1753.0,1763.0,1899.0,1772.0,1751.0,0.0,1759.0,1751.0,106.51396179199219,-45.89501953125,-47.269744873046875,Left
4336.68310546875,21624,1,1758.0,1759.0,1727.0,1737.0,1757.0,300.0,1762.0,1747.0,106.51396179199219,-45.89501953125,-47.269744873046875,Left
4339.70068359375,21625,1,1759.0,1755.0,1853.0,1608.0,1751.0,3145.0,1761.0,1751.0,106.51396179199219,-45.89501953125,-47.269744873046875,Left
4341.70068359375,21625,1,1767.0,1765.0,1785.0,1591.0,1753.0,3791.0,1761.0,1753.0,106.51396179199219,-45.89501953125,-47.269744873046875,Left
4343.70068359375,21625,1,1753.0,1757.0,1605.0,1611.0,1750.0,3789.0,1763.0,1733.0,106.51396179199219,-45.89501953125,-47.269744873046875,Left
4345.70068359375,21625,1,1754.0,1758.0,1643.0,1773.0,1747.0,3797.0,1763.0,1739.0,106.92022705078125,-45.957435607910156,-47.72028350830078,Left
4347.70068359375,21625,1,1757.0,1753.0,1722.0,1909.0,1747.0,499.0,1758.0,1743.0,106.92022705078125,-45.957435607910156,-47.72028350830078,Left
4347.8681640625,21626,1,1753.0,1755.0,1699.0,1963.0,1741.0,0.0,1757.0,1749.0,106.92022705078125,-45.957435607910156,-47.72028350830078,Left
4349.8681640625,21626,1,1759.0,1764.0,1687.0,1949.0,1751.0,0.0,1757.0,1755.0,106.92022705078125,-45.957435607910156,-47.72028350830078,Left
4351.8681640625,21626,1,1752.0,1759.0,1685.0,1828.0,1748.0,0.0,1763.0,1749.0,106.92022705078125,-45.957435607910156,-47.72028350830078,Left
4353.8681640625,21626,1,1769.0,1769.0,1563.0,1750.0,1759.0,122.0,1763.0,1755.0,106.92022705078125,-45.957435607910156,-47.72028350830078,Left
4355.8681640625,21626,1,1763.0,1768.0,1689.0,1743.0,1756.0,425.0,1762.0,1746.0,106.92022705078125,-45.957435607910156,-47.72028350830078,Left
4358.88623046875,21627,1,1763.0,1764.0,1687.0,1677.0,1741.0,3259.0,1759.0,1751.0,106.92022705078125,-45.957435607910156,-47.72028350830078,Left
4360.88623046875,21627,1,1749.0,1752.0,1711.0,1618.0,1737.0,3788.0,1757.0,1742.0,106.92022705078125,-45.957435607910156,-47.72028350830078,Left
4362.88623046875,21627,1,1747.0,1763.0,1709.0,1658.0,1779.0,3787.0,1757.0,1740.0,106.92022705078125,-45.957435607910156,-47.72028350830078,Left
4364.88623046875,21627,1,1763.0,1763.0,1803.0,1838.0,1757.0,3795.0,1759.0,1751.0,106.92022705078125,-45.957435607910156,-47.72028350830078,Left
4366.88623046875,21627,1,1771.0,1769.0,1829.0,1997.0,1752.0,594.0,1759.0,1762.0,106.92022705078125,-45.957435607910156,-47.72028350830078,Left
4365.9345703125,21628,1,1757.0,1759.0,1959.0,1900.0,1747.0,0.0,1750.0,1753.0,106.92022705078125,-45.957435607910156,-47.72028350830078,Left
4367.9345703125,21628,1,1751.0,1763.0,1867.0,1755.0,1749.0,0.0,1761.0,1757.0,106.92022705078125,-45.957435607910156,-47.72028350830078,Left
4369.9345703125,21628,1,1757.0,1764.0,1926.0,1685.0,1749.0,0.0,1750.0,1754.0,106.92022705078125,-45.957435607910156,-47.72028350830078,Left
4371.9345703125,21628,1,1753.0,1758.0,1964.0,1564.0,1752.0,185.0,1757.0,1753.0,106.92022705078125,-45.957435607910156,-47.72028350830078,Left
4373.9345703125,21628,1,1755.0,1755.0,1962.0,1579.0,1751.0,475.0,1759.0,1747.0,106.92022705078125,-45.957435607910156,-47.72028350830078,Left
4427.88134765625,21629,1,1749.0,1747.0,1833.0,1532.0,1748.0,3391.0,1761.0,1747.0,106.92022705078125,-45.957435607910156,-47.72028350830078,Left
4429.88134765625,21629,1,1754.0,1763.0,1855.0,1527.0,1749.0,3794.0,1759.0,1748.0,106.92022705078125,-45.957435607910156,-47.72028350830078,Left
4431.88134765625,21629,1,1759.0,1763.0,1845.0,1567.0,1751.0,3789.0,1763.0,1749.0,106.92022705078125,-45.957435607910156,-47.72028350830078,Left
4433.88134765625,21629,1,1757.0,1763.0,1738.0,1699.0,1752.0,3793.0,1757.0,1748.0,106.92022705078125,-45.957435607910156,-47.72028350830078,Left
4435.88134765625,21629,1,1763.0,1765.0,1717.0,1836.0,1751.0,704.0,1758.0,1751.0,106.92022705078125,-45.957435607910156,-47.72028350830078,Left
4428.888671875,21630,1,1753.0,1765.0,1835.0,1951.0,1751.0,0.0,1759.0,1747.0,106.92022705078125,-45.957435607910156,-47.72028350830078,Left
4430.888671875,21630,1,1755.0,1759.0,1944.0,1875.0,1749.0,0.0,1759.0,1747.0,106.92022705078125,-45.957435607910156,-47.72028350830078,Left
4432.888671875,21630,1,1766.0,1766.0,1828.0,1811.0,1755.0,0.0,1757.0,1755.0,106.92022705078125,-45.957435607910156,-47.72028350830078,Left
4434.888671875,21630,1,1767.0,1757.0,1736.0,1837.0,1749.0,165.0,1757.0,1748.0,106.92022705078125,-45.957435607910156,-47.72028350830078,Left
4436.888671875,21630,1,1754.0,1758.0,1619.0,1814.0,1749.0,459.0,1763.0,1751.0,106.92022705078125,-45.957435607910156,-47.72028350830078,Left
4428.888671875,21631,1,1749.0,1749.0,1559.0,1691.0,1747.0,3479.0,1759.0,1736.0,106.92022705078125,-45.957435607910156,-47.72028350830078,Left
4430.888671875,21631,1,1768.0,1757.0,1637.0,1607.0,1749.0,3793.0,1762.0,1739.0,106.92022705078125,-45.957435607910156,-47.72028350830078,Left
4432.888671875,21631,1,1755.0,1759.0,1691.0,1607.0,1751.0,3787.0,1756.0,1752.0,106.92022705078125,-45.957435607910156,-47.72028350830078,Left
4434.888671875,21631,1,1763.0,1749.0,1527.0,1817.0,1747.0,3798.0,1758.0,1740.0,106.92022705078125,-45.957435607910156,-47.72028350830078,Left
4436.888671875,21631,1,1763.0,1757.0,1566.0,1847.0,1743.0,719.0,1759.0,1753.0,106.92022705078125,-45.957435607910156,-47.72028350830078,Left
4428.888671875,21632,1,1755.0,1764.0,1467.0,1941.0,1750.0,0.0,1757.0,1749.0,106.92022705078125,-45.957435607910156,-47.72028350830078,Left
4430.888671875,21632,1,1755.0,1764.0,1573.0,1903.0,1751.0,0.0,1763.0,1747.0,106.69898223876953,-45.912681579589844,-47.76315689086914,Left
4432.888671875,21632,1,1749.0,1765.0,1677.0,1875.0,1753.0,0.0,1758.0,1744.0,106.69898223876953,-45.912681579589844,-47.76315689086914,Left
4434.888671875,21632,1,1753.0,1765.0,1592.0,1742.0,1753.0,137.0,1757.0,1765.0,106.69898223876953,-45.912681579589844,-47.76315689086914,Left
4436.888671875,21632,1,1769.0,1763.0,1747.0,1702.0,1750.0,543.0,1759.0,1758.0,106.69898223876953,-45.912681579589844,-47.76315689086914,Left
4428.888671875,21633,1,1750.0,1763.0,1724.0,1543.0,1742.0,3647.0,1757.0,1735.0,106.69898223876953,-45.912681579589844,-47.76315689086914,Left
4430.888671875,21633,1,1758.0,1763.0,1911.0,1477.0,1751.0,3794.0,1759.0,1751.0,106.69898223876953,-45.912681579589844,-47.76315689086914,Left
4432.888671875,21633,1,1766.0,1759.0,1973.0,1565.0,1755.0,3795.0,1757.0,1750.0,106.69898223876953,-45.912681579589844,-47.76315689086914,Left
4434.888671875,21633,1,1764.0,1768.0,1916.0,1595.0,1755.0,3799.0,1763.0,1751.0,106.69898223876953,-45.912681579589844,-47.76315689086914,Left
4436.888671875,21633,1,1757.0,1759.0,1901.0,1709.0,1750.0,738.0,1759.0,1743.0,106.69898223876953,-45.912681579589844,-47.76315689086914,Left
4430.18310546875,21634,1,1750.0,1756.0,1879.0,1827.0,1751.0,0.0,1753.0,1749.0,106.69898223876953,-45.912681579589844,-47.76315689086914,Left
4432.18310546875,21634,1,1751.0,1759.0,1599.0,1767.0,1753.0,0.0,1762.0,1746.0,106.69898223876953,-45.912681579589844,-47.76315689086914,Left
4434.18310546875,21634,1,1765.0,1767.0,1561.0,1727.0,1753.0,0.0,1758.0,1751.0,106.69898223876953,-45.912681579589844,-47.76315689086914,Left
4436.18310546875,21634,1,1757.0,1768.0,1695.0,1707.0,1749.0,73.0,1763.0,1750.0,106.69898223876953,-45.912681579589844,-47.76315689086914,Left
4438.18310546875,21634,1,1755.0,1772.0,1604.0,1693.0,1752.0,547.0,1757.0,1749.0,106.69898223876953,-45.912681579589844,-47.76315689086914,Left
4437.8583984375,21635,1,1753.0,1770.0,1543.0,1619.0,1749.0,3657.0,1747.0,1733.0,106.69898223876953,-45.912681579589844,-47.76315689086914,Left
4439.8583984375,21635,1,1757.0,1752.0,1672.0,1573.0,1747.0,3797.0,1759.0,1736.0,106.69898223876953,-45.912681579589844,-47.76315689086914,Left
4441.8583984375,21635,1,1755.0,1749.0,1769.0,1629.0,1748.0,3794.0,1759.0,1741.0,106.69898223876953,-45.912681579589844,-47.76315689086914,Left
4443.8583984375,21635,1,1756.0,1747.0,1627.0,1757.0,1743.0,3797.0,1759.0,1749.0,106.69898223876953,-45.912681579589844,-47.76315689086914,Left
4445.8583984375,21635,1,1751.0,1740.0,1671.0,1823.0,1749.0,741.0,1763.0,1742.0,106.69898223876953,-45.912681579589844,-47.76315689086914,Left
4447.11328125,21636,1,1757.0,1769.0,1821.0,1971.0,1758.0,0.0,1762.0,1749.0,106.69898223876953,-45.912681579589844,-47.76315689086914,Left
4449.11328125,21636,1,1757.0,1771.0,1789.0,2019.0,1753.0,0.0,1758.0,1751.0,106.69898223876953,-45.912681579589844,-47.76315689086914,Left
4451.11328125,21636,1,1755.0,1785.0,1746.0,1999.0,1752.0,0.0,1757.0,1742.0,106.69898223876953,-45.912681579589844,-47.76315689086914,Left
4453.11328125,21636,1,1758.0,1765.0,1827.0,1993.0,1751.0,57.0,1762.0,1755.0,106.69898223876953,-45.912681579589844,-47.76315689086914,Left
4455.11328125,21636,1,1752.0,1692.0,1955.0,1877.0,1727.0,507.0,1763.0,1737.0,106.69898223876953,-45.912681579589844,-47.76315689086914,Left
4457.11376953125,21637,1,1749.0,1724.0,1723.0,1695.0,1737.0,3565.0,1762.0,1747.0,106.69898223876953,-45.912681579589844,-47.76315689086914,Left
4459.11376953125,21637,1,1763.0,1755.0,1683.0,1571.0,1747.0,3787.0,1759.0,1749.0,106.69898223876953,-45.912681579589844,-47.76315689086914,Left
4461.11376953125,21637,1,1762.0,1759.0,1703.0,1621.0,1748.0,3791.0,1759.0,1752.0,106.69898223876953,-45.912681579589844,-47.76315689086914,Left
4463.11376953125,21637,1,1761.0,1762.0,1609.0,1781.0,1747.0,3795.0,1759.0,1747.0,106.69898223876953,-45.912681579589844,-47.76315689086914,Left
4465.11376953125,21637,1,1765.0,1769.0,1786.0,1867.0,1757.0,800.0,1756.0,1749.0,106.69898223876953,-45.912681579589844,-47.76315689086914,Left
4467.8779296875,21638,1,1759.0,1767.0,1935.0,1897.0,1753.0,0.0,1757.0,1748.0,106.69898223876953,-45.912681579589844,-47.76315689086914,Left
4469.8779296875,21638,1,1752.0,1773.0,1917.0,1863.0,1754.0,0.0,1761.0,1747.0,106.69898223876953,-45.912681579589844,-47.76315689086914,Left
4471.8779296875,21638,1,1754.0,1768.0,1908.0,1839.0,1753.0,0.0,1759.0,1747.0,106.99958801269531,-45.80475997924805,-47.88719177246094,Left
4473.8779296875,21638,1,1759.0,1759.0,1813.0,1743.0,1751.0,11.0,1757.0,1745.0,106.99958801269531,-45.80475997924805,-47.88719177246094,Left
4475.8779296875,21638,1,1770.0,1759.0,1723.0,1727.0,1751.0,501.0,1759.0,1748.0,106.99958801269531,-45.80475997924805,-47.88719177246094,Left
4477.62353515625,21639,1,1757.0,1763.0,1589.0,1580.0,1751.0,3367.0,1762.0,1743.0,106.99958801269531,-45.80475997924805,-47.88719177246094,Left
4479.62353515625,21639,1,1755.0,1757.0,1605.0,1509.0,1747.0,3793.0,1759.0,1746.0,106.99958801269531,-45.80475997924805,-47.88719177246094,Left
4481.62353515625,21639,1,1749.0,1753.0,1753.0,1572.0,1751.0,3793.0,1759.0,1727.0,106.99958801269531,-45.80475997924805,-47.88719177246094,Left
4483.62353515625,21639,1,1748.0,1755.0,1628.0,1723.0,1749.0,3805.0,1761.0,1738.0,106.99958801269531,-45.80475997924805,-47.88719177246094,Left
4485.62353515625,21639,1,1756.0,1763.0,1590.0,1820.0,1762.0,547.0,1761.0,1753.0,106.99958801269531,-45.80475997924805,-47.88719177246094,Left
4487.43896484375,21640,1,1763.0,1756.0,1605.0,1773.0,1754.0,0.0,1759.0,1769.0,106.99958801269531,-45.80475997924805,-47.88719177246094,Left
4489.43896484375,21640,1,1753.0,1762.0,1887.0,1786.0,1743.0,0.0,1758.0,1765.0,106.99958801269531,-45.80475997924805,-47.88719177246094,Left
4491.43896484375,21640,1,1765.0,1763.0,1955.0,1831.0,1749.0,0.0,1759.0,1751.0,106.99958801269531,-45.80475997924805,-47.88719177246094,Left
4493.43896484375,21640,1,1756.0,1769.0,1994.0,1784.0,1753.0,85.0,1759.0,1741.0,106.99958801269531,-45.80475997924805,-47.88719177246094,Left
4495.43896484375,21640,1,1755.0,1767.0,1843.0,1725.0,1757.0,392.0,1759.0,1739.0,106.99958801269531,-45.80475997924805,-47.88719177246094,Left
4497.77880859375,21641,1,1755.0,1764.0,1863.0,1611.0,1753.0,3155.0,1762.0,1753.0,106.99958801269531,-45.80475997924805,-47.88719177246094,Left
4499.77880859375,21641,1,1769.0,1765.0,1817.0,1497.0,1752.0,3796.0,1757.0,1746.0,106.99958801269531,-45.80475997924805,-47.88719177246094,Left
4501.77880859375,21641,1,1762.0,1756.0,1787.0,1507.0,1751.0,3795.0,1763.0,1753.0,106.99958801269531,-45.80475997924805,-47.88719177246094,Left
4503.77880859375,21641,1,1751.0,1755.0,1846.0,1631.0,1752.0,3796.0,1762.0,1743.0,106.99958801269531,-45.80475997924805,-47.88719177246094,Left
4505.77880859375,21641,1,1753.0,1765.0,2147.0,1787.0,1753.0,555.0,1757.0,1750.0,106.99958801269531,-45.80475997924805,-47.88719177246094,Left
4508.01171875,21642,1,1747.0,1759.0,2041.0,1927.0,1748.0,0.0,1762.0,1755.0,106.99958801269531,-45.80475997924805,-47.88719177246094,Left
4510.01171875,21642,1,1755.0,1766.0,1879.0,1958.0,1747.0,0.0,1757.0,1753.0,106.99958801269531,-45.80475997924805,-47.88719177246094,Left
4512.01171875,21642,1,1751.0,1753.0,1624.0,1887.0,1721.0,0.0,1758.0,1735.0,106.99958801269531,-45.80475997924805,-47.88719177246094,Left
4514.01171875,21642,1,1769.0,1763.0,1685.0,1833.0,1752.0,149.0,1763.0,1759.0,106.99958801269531,-45.80475997924805,-47.88719177246094,Left
4516.01171875,21642,1,1763.0,1756.0,1694.0,1726.0,1751.0,443.0,1761.0,1736.0,106.99958801269531,-45.80475997924805,-47.88719177246094,Left
4566.34423828125,21643,1,1753.0,1751.0,1581.0,1565.0,1747.0,2873.0,1756.0,1743.0,106.99958801269531,-45.80475997924805,-47.88719177246094,Left
4568.34423828125,21643,1,1757.0,1757.0,1443.0,1525.0,1753.0,3795.0,1755.0,1747.0,106.99958801269531,-45.80475997924805,-47.88719177246094,Left
4570.34423828125,21643,1,1757.0,1756.0,1564.0,1607.0,1750.0,3795.0,1763.0,1749.0,106.99958801269531,-45.80475997924805,-47.88719177246094,Left
4572.34423828125,21643,1,1773.0,1756.0,1559.0,1739.0,1747.0,3800.0,1761.0,1741.0,106.99958801269531,-45.80475997924805,-47.88719177246094,Left
4574.34423828125,21643,1,1747.0,1755.0,1637.0,1891.0,1742.0,377.0,1757.0,1749.0,106.99958801269531,-45.80475997924805,-47.88719177246094,Left
4567.31640625,21644,1,1755.0,1757.0,1693.0,1965.0,1747.0,0.0,1762.0,1747.0,106.99958801269531,-45.80475997924805,-47.88719177246094,Left
4569.31640625,21644,1,1755.0,1749.0,1660.0,1919.0,1749.0,0.0,1762.0,1759.0,106.99958801269531,-45.80475997924805,-47.88719177246094,Left
4571.31640625,21644,1,1767.0,1758.0,1547.0,1839.0,1756.0,0.0,1758.0,1757.0,106.99958801269531,-45.80475997924805,-47.88719177246094,Left
4573.31640625,21644,1,1775.0,1766.0,1496.0,1743.0,1763.0,263.0,1759.0,1749.0,106.99958801269531,-45.80475997924805,-47.88719177246094,Left
4575.31640625,21644,1,1759.0,1757.0,1598.0,1683.0,1753.0,547.0,1756.0,1750.0,106.99958801269531,-45.80475997924805,-47.88719177246094,Left
4567.31640625,21645,1,1754.0,1751.0,1789.0,1604.0,1742.0,2503.0,1763.0,1750.0,107.18097686767578,-45.737998962402344,-47.9978141784668,Left
4569.31640625,21645,1,1755.0,1753.0,1824.0,1572.0,1747.0,3795.0,1762.0,1741.0,107.18097686767578,-45.737998962402344,-47.9978141784668,Left
4571.31640625,21645,1,1750.0,1755.0,1837.0,1639.0,1747.0,3789.0,1763.0,1741.0,107.18097686767578,-45.737998962402344,-47.9978141784668,Left
4573.31640625,21645,1,1751.0,1751.0,1773.0,1862.0,1741.0,3799.0,1758.0,1745.0,107.18097686767578,-45.737998962402344,-47.9978141784668,Left
4575.31640625,21645,1,1757.0,1759.0,1878.0,1989.0,1758.0,312.0,1758.0,1753.0,107.18097686767578,-45.737998962402344,-47.9978141784668,Left
4567.31640625,21646,1,1758.0,1762.0,1973.0,1961.0,1747.0,0.0,1747.0,1741.0,107.18097686767578,-45.737998962402344,-47.9978141784668,Left
4569.31640625,21646,1,1759.0,1765.0,1971.0,1938.0,1753.0,0.0,1759.0,1751.0,107.18097686767578,-45.737998962402344,-47.9978141784668,Left
4571.31640625,21646,1,1763.0,1759.0,1852.0,1913.0,1751.0,35.0,1755.0,1747.0,107.18097686767578,-45.737998962402344,-47.9978141784668,Left
4573.31640625,21646,1,1758.0,1763.0,1845.0,1855.0,1749.0,366.0,1759.0,1749.0,107.18097686767578,-45.737998962402344,-47.9978141784668,Left
4575.31640625,21646,1,1769.0,1763.0,1746.0,1863.0,1751.0,621.0,1762.0,1747.0,107.18097686767578,-45.737998962402344,-47.9978141784668,Left
4568.6181640625,21647,1,1749.0,1765.0,1622.0,1672.0,1746.0,2645.0,1759.0,1743.0,107.18097686767578,-45.737998962402344,-47.9978141784668,Left
4570.6181640625,21647,1,1752.0,1764.0,1515.0,1563.0,1751.0,3790.0,1762.0,1735.0,107.18097686767578,-45.737998962402344,-47.9978141784668,Left
4572.6181640625,21647,1,1751.0,1766.0,1493.0,1655.0,1752.0,3789.0,1759.0,1739.0,107.18097686767578,-45.737998962402344,-47.9978141784668,Left
4574.6181640625,21647,1,1765.0,1758.0,1635.0,1770.0,1754.0,3796.0,1763.0,1759.0,107.18097686767578,-45.737998962402344,-47.9978141784668,Left
4576.6181640625,21647,1,1767.0,1749.0,1683.0,1839.0,1750.0,492.0,1757.0,1753.0,107.18097686767578,-45.737998962402344,-47.9978141784668,Left
4568.6181640625,21648,1,1754.0,1742.0,1988.0,1874.0,1743.0,0.0,1757.0,1741.0,107.18097686767578,-45.737998962402344,-47.9978141784668,Left
4570.6181640625,21648,1,1763.0,1751.0,2003.0,1851.0,1748.0,0.0,1756.0,1751.0,107.18097686767578,-45.737998962402344,-47.9978141784668,Left
4572.6181640625,21648,1,1765.0,1752.0,2099.0,1807.0,1749.0,43.0,1764.0,1749.0,107.18097686767578,-45.737998962402344,-47.9978141784668,Left
4574.6181640625,21648,1,1752.0,1757.0,2164.0,1757.0,1747.0,355.0,1759.0,1747.0,107.18097686767578,-45.737998962402344,-47.9978141784668,Left
4576.6181640625,21648,1,1751.0,1757.0,1917.0,1709.0,1737.0,617.0,1758.0,1749.0,107.18097686767578,-45.737998962402344,-47.9978141784668,Left
4576.134765625,21649,1,1757.0,1781.0,1935.0,1575.0,1759.0,2857.0,1756.0,1751.0,107.18097686767578,-45.737998962402344,-47.9978141784668,Left
4578.134765625,21649,1,1755.0,1779.0,1675.0,1553.0,1763.0,3788.0,1758.0,1749.0,107.18097686767578,-45.737998962402344,-47.9978141784668,Left
4580.134765625,21649,1,1771.0,1759.0,1655.0,1613.0,1751.0,3791.0,1757.0,1750.0,107.18097686767578,-45.737998962402344,-47.9978141784668,Left
4582.134765625,21649,1,1752.0,1747.0,1679.0,1843.0,1739.0,3799.0,1757.0,1735.0,107.18097686767578,-45.737998962402344,-47.9978141784668,Left
4584.134765625,21649,1,1747.0,1727.0,1821.0,1895.0,1741.0,754.0,1759.0,1739.0,107.18097686767578,-45.737998962402344,-47.9978141784668,Left
4660.7607421875,21650,1,1755.0,1743.0,1915.0,1977.0,1747.0,0.0,1762.0,1751.0,107.18097686767578,-45.737998962402344,-47.9978141784668,Left
4662.7607421875,21650,1,1759.0,1762.0,1811.0,2003.0,1751.0,0.0,1757.0,1755.0,107.18097686767578,-45.737998962402344,-47.9978141784668,Left
4664.7607421875,21650,1,1753.0,1763.0,1831.0,1975.0,1745.0,0.0,1761.0,1747.0,107.18097686767578,-45.737998962402344,-47.9978141784668,Left
4666.7607421875,21650,1,1757.0,1759.0,1657.0,1895.0,1747.0,286.0,1759.0,1753.0,107.18097686767578,-45.737998962402344,-47.9978141784668,Left
4668.7607421875,21650,1,1751.0,1766.0,1653.0,1823.0,1755.0,563.0,1758.0,1756.0,107.18097686767578,-45.737998962402344,-47.9978141784668,Left
4660.7607421875,21651,1,1764.0,1769.0,1640.0,1659.0,1755.0,3005.0,1756.0,1764.0,107.18097686767578,-45.737998962402344,-47.9978141784668,Left
4662.7607421875,21651,1,1765.0,1767.0,1785.0,1567.0,1753.0,3789.0,1759.0,1755.0,107.18097686767578,-45.737998962402344,-47.9978141784668,Left
4664.7607421875,21651,1,1753.0,1762.0,1739.0,1626.0,1753.0,3791.0,1757.0,1747.0,107.29322814941406,-45.965938568115234,-47.92388916015625,Left
4666.7607421875,21651,1,1752.0,1759.0,1711.0,1701.0,1749.0,3796.0,1763.0,1748.0,107.29322814941406,-45.965938568115234,-47.92388916015625,Left
4668.7607421875,21651,1,1757.0,1764.0,1733.0,1715.0,1747.0,651.0,1763.0,1746.0,107.29322814941406,-45.965938568115234,-47.92388916015625,Left
4661.7578125,21652,1,1753.0,1753.0,1652.0,1873.0,1737.0,0.0,1758.0,1737.0,107.29322814941406,-45.965938568115234,-47.92388916015625,Left
4663.7578125,21652,1,1749.0,1755.0,1779.0,1879.0,1751.0,0.0,1759.0,1749.0,107.29322814941406,-45.965938568115234,-47.92388916015625,Left
4665.7578125,21652,1,1765.0,1765.0,1871.0,1945.0,1754.0,0.0,1757.0,1751.0,107.29322814941406,-45.965938568115234,-47.92388916015625,Left
4667.7578125,21652,1,1755.0,1758.0,1853.0,1989.0,1751.0,265.0,1762.0,1739.0,107.29322814941406,-45.965938568115234,-47.92388916015625,Left
4669.7578125,21652,1,1757.0,1762.0,1787.0,1898.0,1742.0,550.0,1762.0,1739.0,107.29322814941406,-45.965938568115234,-47.92388916015625,Left
4661.7578125,21653,1,1749.0,1767.0,1682.0,1707.0,1753.0,3207.0,1762.0,1749.0,107.29322814941406,-45.965938568115234,-47.92388916015625,Left
4663.7578125,21653,1,1753.0,1763.0,1740.0,1644.0,1756.0,3794.0,1759.0,1752.0,107.29322814941406,-45.965938568115234,-47.92388916015625,Left
4665.7578125,21653,1,1769.0,1759.0,1749.0,1639.0,1753.0,3791.0,1763.0,1763.0,107.29322814941406,-45.965938568115234,-47.92388916015625,Left
4667.7578125,21653,1,1763.0,1753.0,1805.0,1739.0,1751.0,3799.0,1759.0,1749.0,107.29322814941406,-45.965938568115234,-47.92388916015625,Left
4669.7578125,21653,1,1769.0,1757.0,1596.0,1843.0,1752.0,798.0,1763.0,1752.0,107.29322814941406,-45.965938568115234,-47.92388916015625,Left
4661.7578125,21654,1,1755.0,1755.0,1522.0,1914.0,1750.0,0.0,1763.0,1747.0,107.29322814941406,-45.965938568115234,-47.92388916015625,Left
4663.7578125,21654,1,1753.0,1763.0,1564.0,1915.0,1751.0,0.0,1759.0,1741.0,107.29322814941406,-45.965938568115234,-47.92388916015625,Left
4665.7578125,21654,1,1755.0,1765.0,1746.0,1879.0,1752.0,0.0,1747.0,1755.0,107.29322814941406,-45.965938568115234,-47.92388916015625,Left
4667.7578125,21654,1,1769.0,1769.0,1943.0,1821.0,1757.0,211.0,1759.0,1752.0,107.29322814941406,-45.965938568115234,-47.92388916015625,Left
4669.7578125,21654,1,1751.0,1757.0,2019.0,1752.0,1750.0,494.0,1762.0,1735.0,107.29322814941406,-45.965938568115234,-47.92388916015625,Left
4662.75927734375,21655,1,1748.0,1747.0,1892.0,1695.0,1747.0,2969.0,1753.0,1737.0,107.29322814941406,-45.965938568115234,-47.92388916015625,Left
4664.75927734375,21655,1,1749.0,1753.0,1883.0,1530.0,1747.0,3796.0,1759.0,1740.0,107.29322814941406,-45.965938568115234,-47.92388916015625,Left
4666.75927734375,21655,1,1753.0,1759.0,1897.0,1517.0,1747.0,3794.0,1758.0,1751.0,107.29322814941406,-45.965938568115234,-47.92388916015625,Left
4668.75927734375,21655,1,1756.0,1754.0,2005.0,1671.0,1749.0,3837.0,1762.0,1748.0,107.29322814941406,-45.965938568115234,-47.92388916015625,Left
4670.75927734375,21655,1,1755.0,1761.0,1967.0,1848.0,1753.0,653.0,1757.0,1749.0,107.29322814941406,-45.965938568115234,-47.92388916015625,Left
4662.75927734375,21656,1,1751.0,1761.0,1891.0,1875.0,1745.0,0.0,1763.0,1748.0,107.29322814941406,-45.965938568115234,-47.92388916015625,Left
4664.75927734375,21656,1,1749.0,1759.0,1877.0,1817.0,1749.0,0.0,1761.0,1751.0,107.29322814941406,-45.965938568115234,-47.92388916015625,Left
4666.75927734375,21656,1,1783.0,1765.0,1763.0,1784.0,1758.0,0.0,1757.0,1763.0,107.29322814941406,-45.965938568115234,-47.92388916015625,Left
4668.75927734375,21656,1,1757.0,1757.0,1645.0,1813.0,1751.0,239.0,1762.0,1748.0,107.29322814941406,-45.965938568115234,-47.92388916015625,Left
4670.75927734375,21656,1,1757.0,1757.0,1455.0,1711.0,1751.0,529.0,1759.0,1748.0,107.29322814941406,-45.965938568115234,-47.92388916015625,Left
4662.75927734375,21657,1,1762.0,1757.0,1496.0,1613.0,1752.0,2847.0,1757.0,1743.0,107.29322814941406,-45.965938568115234,-47.92388916015625,Left
4664.75927734375,21657,1,1763.0,1758.0,1647.0,1517.0,1754.0,3795.0,1757.0,1741.0,107.29322814941406,-45.965938568115234,-47.92388916015625,Left
4666.75927734375,21657,1,1759.0,1757.0,1661.0,1583.0,1759.0,3791.0,1750.0,1747.0,107.29322814941406,-45.965938568115234,-47.92388916015625,Left
4668.75927734375,21657,1,1751.0,1763.0,1707.0,1634.0,1747.0,3790.0,1762.0,1732.0,107.29322814941406,-45.965938568115234,-47.92388916015625,Left
4670.75927734375,21657,1,1757.0,1763.0,2070.0,1736.0,1756.0,614.0,1759.0,1756.0,107.29322814941406,-45.965938568115234,-47.92388916015625,Left
4665.8193359375,21658,1,1754.0,1755.0,2025.0,1819.0,1749.0,0.0,1759.0,1739.0,107.31509399414062,-46.04313278198242,-47.913963317871094,Left
4667.8193359375,21658,1,1757.0,1757.0,1975.0,1827.0,1743.0,0.0,1757.0,1747.0,107.31509399414062,-46.04313278198242,-47.913963317871094,Left
4669.8193359375,21658,1,1755.0,1754.0,1807.0,1768.0,1749.0,0.0,1764.0,1751.0,107.31509399414062,-46.04313278198242,-47.913963317871094,Left
4671.8193359375,21658,1,1771.0,1763.0,1799.0,1719.0,1751.0,269.0,1762.0,1753.0,107.31509399414062,-46.04313278198242,-47.913963317871094,Left
4673.8193359375,21658,1,1756.0,1762.0,1893.0,1791.0,1757.0,550.0,1763.0,1751.0,107.31509399414062,-46.04313278198242,-47.913963317871094,Left
4679.57666015625,21659,1,1757.0,1768.0,1768.0,1653.0,1750.0,2616.0,1761.0,1743.0,107.31509399414062,-46.04313278198242,-47.913963317871094,Left
4681.57666015625,21659,1,1747.0,1749.0,1623.0,1594.0,1741.0,3787.0,1758.0,1757.0,107.31509399414062,-46.04313278198242,-47.913963317871094,Left
4683.57666015625,21659,1,1770.0,1757.0,1546.0,1606.0,1755.0,3794.0,1763.0,1743.0,107.31509399414062,-46.04313278198242,-47.913963317871094,Left
4685.57666015625,21659,1,1765.0,1765.0,1677.0,1707.0,1752.0,3796.0,1757.0,1743.0,107.31509399414062,-46.04313278198242,-47.913963317871094,Left
4687.57666015625,21659,1,1753.0,1759.0,1681.0,1773.0,1754.0,671.0,1759.0,1734.0,107.31509399414062,-46.04313278198242,-47.913963317871094,Left
4691.5556640625,21660,1,1753.0,1753.0,1755.0,1834.0,1749.0,0.0,1765.0,1743.0,107.31509399414062,-46.04313278198242,-47.913963317871094,Left
4693.5556640625,21660,1,1755.0,1762.0,1837.0,1881.0,1751.0,0.0,1759.0,1755.0,107.31509399414062,-46.04313278198242,-47.913963317871094,Left
4695.5556640625,21660,1,1755.0,1763.0,1767.0,1887.0,1749.0,0.0,1759.0,1749.0,107.31509399414062,-46.04313278198242,-47.913963317871094,Left
4697.5556640625,21660,1,1759.0,1763.0,1821.0,1812.0,1752.0,297.0,1759.0,1751.0,107.31509399414062,-46.04313278198242,-47.913963317871094,Left
4699.5556640625,21660,1,1755.0,1756.0,1640.0,1803.0,1747.0,571.0,1758.0,1735.0,107.31509399414062,-46.04313278198242,-47.913963317871094,Left
4699.0302734375,21661,1,1755.0,1756.0,1865.0,1627.0,1750.0,2572.0,1763.0,1752.0,107.31509399414062,-46.04313278198242,-47.913963317871094,Left
4701.0302734375,21661,1,1771.0,1756.0,1743.0,1573.0,1753.0,3788.0,1757.0,1749.0,107.31509399414062,-46.04313278198242,-47.913963317871094,Left
4703.0302734375,21661,1,1758.0,1751.0,1693.0,1579.0,1747.0,3797.0,1757.0,1741.0,107.31509399414062,-46.04313278198242,-47.913963317871094,Left
4705.0302734375,21661,1,1763.0,1763.0,1705.0,1702.0,1757.0,3795.0,1758.0,1748.0,107.31509399414062,-46.04313278198242,-47.913963317871094,Left
4707.0302734375,21661,1,1754.0,1767.0,1800.0,1831.0,1753.0,659.0,1759.0,1741.0,107.31509399414062,-46.04313278198242,-47.913963317871094,Left
4707.7685546875,21662,1,1749.0,1755.0,1915.0,1915.0,1751.0,0.0,1751.0,1745.0,107.31509399414062,-46.04313278198242,-47.913963317871094,Left
4709.7685546875,21662,1,1756.0,1763.0,1886.0,1929.0,1753.0,0.0,1763.0,1757.0,107.31509399414062,-46.04313278198242,-47.913963317871094,Left
4711.7685546875,21662,1,1753.0,1752.0,1911.0,1850.0,1748.0,0.0,1762.0,1743.0,107.31509399414062,-46.04313278198242,-47.913963317871094,Left
4713.7685546875,21662,1,1753.0,1767.0,1689.0,1801.0,1753.0,294.0,1762.0,1749.0,107.31509399414062,-46.04313278198242,-47.913963317871094,Left
4715.7685546875,21662,1,1752.0,1756.0,1785.0,1709.0,1749.0,568.0,1763.0,1737.0,107.31509399414062,-46.04313278198242,-47.913963317871094,Left
4717.76806640625,21663,1,1751.0,1756.0,1725.0,1591.0,1751.0,2693.0,1758.0,1751.0,107.31509399414062,-46.04313278198242,-47.913963317871094,Left
4719.76806640625,21663,1,1754.0,1757.0,1705.0,1525.0,1746.0,3791.0,1758.0,1747.0,107.31509399414062,-46.04313278198242,-47.913963317871094,Left
4721.76806640625,21663,1,1755.0,1759.0,1510.0,1610.0,1743.0,3797.0,1759.0,1746.0,107.31509399414062,-46.04313278198242,-47.913963317871094,Left
4723.76806640625,21663,1,1758.0,1763.0,1500.0,1683.0,1753.0,3795.0,1757.0,1755.0,107.31509399414062,-46.04313278198242,-47.913963317871094,Left
4725.76806640625,21663,1,1758.0,1767.0,1763.0,1837.0,1752.0,664.0,1759.0,1748.0,107.31509399414062,-46.04313278198242,-47.913963317871094,Left
4727.22216796875,21664,1,1762.0,1763.0,1789.0,1947.0,1755.0,0.0,1761.0,1757.0,107.31509399414062,-46.04313278198242,-47.913963317871094,Left
4729.22216796875,21664,1,1772.0,1764.0,1843.0,1938.0,1758.0,0.0,1759.0,1755.0,107.31509399414062,-46.04313278198242,-47.913963317871094,Left
4731.22216796875,21664,1,1757.0,1759.0,1947.0,1791.0,1749.0,0.0,1758.0,1751.0,107.35848236083984,-45.94905090332031,-47.799903869628906,Left
4733.22216796875,21664,1,1765.0,1759.0,1871.0,1757.0,1749.0,279.0,1758.0,1747.0,107.35848236083984,-45.94905090332031,-47.799903869628906,Left
4735.22216796875,21664,1,1747.0,1753.0,1929.0,1689.0,1747.0,563.0,1758.0,1747.0,107.35848236083984,-45.94905090332031,-47.799903869628906,Left
4737.193359375,21665,1,1753.0,1768.0,1843.0,1705.0,1751.0,2812.0,1762.0,1745.0,107.35848236083984,-45.94905090332031,-47.799903869628906,Left
4739.193359375,21665,1,1763.0,1757.0,1877.0,1671.0,1748.0,3790.0,1754.0,1751.0,107.35848236083984,-45.94905090332031,-47.799903869628906,Left
4741.193359375,21665,1,1763.0,1765.0,1900.0,1687.0,1758.0,3788.0,1759.0,1757.0,107.35848236083984,-45.94905090332031,-47.799903869628906,Left
4743.193359375,21665,1,1767.0,1769.0,1803.0,1820.0,1757.0,3798.0,1759.0,1749.0,107.35848236083984,-45.94905090332031,-47.799903869628906,Left
4745.193359375,21665,1,1749.0,1757.0,1688.0,1890.0,1712.0,663.0,1759.0,1739.0,107.35848236083984,-45.94905090332031,-47.799903869628906,Left
4748.2275390625,21666,1,1751.0,1763.0,1704.0,1949.0,1741.0,0.0,1758.0,1741.0,107.35848236083984,-45.94905090332031,-47.799903869628906,Left
4750.2275390625,21666,1,1737.0,1753.0,1753.0,1907.0,1751.0,0.0,1749.0,1761.0,107.35848236083984,-45.94905090332031,-47.799903869628906,Left
4752.2275390625,21666,1,1751.0,1758.0,1917.0,1871.0,1749.0,0.0,1758.0,1755.0,107.35848236083984,-45.94905090332031,-47.799903869628906,Left
4754.2275390625,21666,1,1765.0,1764.0,1927.0,1751.0,1753.0,261.0,1763.0,1765.0,107.35848236083984,-45.94905090332031,-47.799903869628906,Left
4756.2275390625,21666,1,1765.0,1765.0,1993.0,1610.0,1753.0,536.0,1759.0,1728.0,107.35848236083984,-45.94905090332031,-47.799903869628906,Left
4777.5244140625,21667,1,1750.0,1763.0,1957.0,1565.0,1750.0,2715.0,1749.0,1725.0,107.35848236083984,-45.94905090332031,-47.799903869628906,Left
4779.5244140625,21667,1,1753.0,1761.0,1957.0,1525.0,1741.0,3791.0,1761.0,1739.0,107.35848236083984,-45.94905090332031,-47.799903869628906,Left
4781.5244140625,21667,1,1763.0,1762.0,1845.0,1493.0,1757.0,3795.0,1759.0,1749.0,107.35848236083984,-45.94905090332031,-47.799903869628906,Left
4783.5244140625,21667,1,1751.0,1757.0,1599.0,1620.0,1750.0,3797.0,1759.0,1752.0,107.35848236083984,-45.94905090332031,-47.799903869628906,Left
4785.5244140625,21667,1,1749.0,1758.0,1803.0,1833.0,1751.0,727.0,1756.0,1749.0,107.35848236083984,-45.94905090332031,-47.799903869628906,Left
4777.5244140625,21668,1,1765.0,1759.0,1661.0,1925.0,1747.0,0.0,1755.0,1747.0,107.35848236083984,-45.94905090332031,-47.799903869628906,Left
4779.5244140625,21668,1,1755.0,1763.0,1659.0,1932.0,1747.0,0.0,1762.0,1747.0,107.35848236083984,-45.94905090332031,-47.799903869628906,Left
4781.5244140625,21668,1,1757.0,1769.0,1527.0,1960.0,1749.0,0.0,1759.0,1747.0,107.35848236083984,-45.94905090332031,-47.799903869628906,Left
4783.5244140625,21668,1,1756.0,1763.0,1625.0,1945.0,1753.0,260.0,1757.0,1751.0,107.35848236083984,-45.94905090332031,-47.799903869628906,Left
4785.5244140625,21668,1,1748.0,1757.0,1765.0,1883.0,1750.0,559.0,1757.0,1751.0,107.35848236083984,-45.94905090332031,-47.799903869628906,Left
4780.94287109375,21669,1,1751.0,1761.0,1769.0,1675.0,1747.0,3259.0,1759.0,1747.0,107.35848236083984,-45.94905090332031,-47.799903869628906,Left
4782.94287109375,21669,1,1752.0,1757.0,1771.0,1523.0,1749.0,3795.0,1758.0,1746.0,107.35848236083984,-45.94905090332031,-47.799903869628906,Left
4784.94287109375,21669,1,1755.0,1757.0,1707.0,1529.0,1749.0,3789.0,1759.0,1750.0,107.35848236083984,-45.94905090332031,-47.799903869628906,Left
4786.94287109375,21669,1,1758.0,1766.0,1717.0,1657.0,1755.0,3797.0,1761.0,1752.0,107.35848236083984,-45.94905090332031,-47.799903869628906,Left
4788.94287109375,21669,1,1763.0,1769.0,1886.0,1817.0,1756.0,698.0,1761.0,1753.0,107.35848236083984,-45.94905090332031,-47.799903869628906,Left
4797.89697265625,21670,1,1763.0,1765.0,1957.0,1903.0,1753.0,0.0,1763.0,1749.0,107.35848236083984,-45.94905090332031,-47.799903869628906,Left
4799.89697265625,21670,1,1756.0,1763.0,1774.0,1943.0,1749.0,0.0,1758.0,1748.0,107.35848236083984,-45.94905090332031,-47.799903869628906,Left
4801.89697265625,21670,1,1753.0,1763.0,1701.0,1913.0,1751.0,0.0,1763.0,1749.0,107.35848236083984,-45.94905090332031,-47.799903869628906,Left
4803.89697265625,21670,1,1759.0,1754.0,1594.0,1875.0,1753.0,185.0,1757.0,1757.0,107.35848236083984,-45.94905090332031,-47.799903869628906,Left
4805.89697265625,21670,1,1765.0,1757.0,1609.0,1801.0,1751.0,481.0,1758.0,1746.0,107.35848236083984,-45.94905090332031,-47.799903869628906,Left
4797.89697265625,21671,1,1745.0,1757.0,1574.0,1656.0,1747.0,2991.0,1759.0,1739.0,107.05009460449219,-45.799800872802734,-47.609989166259766,Left
4799.89697265625,21671,1,1752.0,1756.0,1397.0,1617.0,1758.0,3791.0,1757.0,1739.0,107.05009460449219,-45.799800872802734,-47.609989166259766,Left
4801.89697265625,21671,1,1750.0,1756.0,1450.0,1677.0,1749.0,3788.0,1756.0,1743.0,107.05009460449219,-45.799800872802734,-47.609989166259766,Left
4803.89697265625,21671,1,1767.0,1766.0,1485.0,1741.0,1755.0,3797.0,1757.0,1755.0,107.05009460449219,-45.799800872802734,-47.609989166259766,Left
4805.89697265625,21671,1,1767.0,1765.0,1625.0,1876.0,1753.0,525.0,1759.0,1748.0,107.05009460449219,-45.799800872802734,-47.609989166259766,Left
4808.10498046875,21672,1,1753.0,1757.0,1471.0,1990.0,1751.0,0.0,1755.0,1739.0,107.05009460449219,-45.799800872802734,-47.609989166259766,Left
4810.10498046875,21672,1,1751.0,1764.0,1737.0,1907.0,1754.0,0.0,1759.0,1745.0,107.05009460449219,-45.799800872802734,-47.609989166259766,Left
4812.10498046875,21672,1,1748.0,1761.0,1674.0,1849.0,1742.0,0.0,1759.0,1747.0,107.05009460449219,-45.799800872802734,-47.609989166259766,Left
4814.10498046875,21672,1,1753.0,1763.0,1757.0,1764.0,1747.0,216.0,1758.0,1755.0,107.05009460449219,-45.799800872802734,-47.609989166259766,Left
4816.10498046875,21672,1,1759.0,1763.0,1791.0,1723.0,1737.0,502.0,1759.0,1749.0,107.05009460449219,-45.799800872802734,-47.609989166259766,Left
4818.8359375,21673,1,1753.0,1758.0,1675.0,1581.0,1749.0,2895.0,1755.0,1742.0,107.05009460449219,-45.799800872802734,-47.609989166259766,Left
4820.8359375,21673,1,1752.0,1757.0,1789.0,1510.0,1752.0,3795.0,1758.0,1739.0,107.05009460449219,-45.799800872802734,-47.609989166259766,Left
4822.8359375,21673,1,1727.0,1753.0,1834.0,1546.0,1753.0,3791.0,1758.0,1747.0,107.05009460449219,-45.799800872802734,-47.609989166259766,Left
4824.8359375,21673,1,1763.0,1769.0,1797.0,1704.0,1751.0,3799.0,1757.0,1754.0,107.05009460449219,-45.799800872802734,-47.609989166259766,Left
4826.8359375,21673,1,1768.0,1755.0,1765.0,1787.0,1749.0,531.0,1757.0,1759.0,107.05009460449219,-45.799800872802734,-47.609989166259766,Left
4827.93701171875,21674,1,1746.0,1754.0,1763.0,1834.0,1743.0,0.0,1750.0,1743.0,107.05009460449219,-45.799800872802734,-47.609989166259766,Left
4829.93701171875,21674,1,1755.0,1757.0,1884.0,1813.0,1747.0,0.0,1763.0,1743.0,107.05009460449219,-45.799800872802734,-47.609989166259766,Left
4831.93701171875,21674,1,1755.0,1759.0,1865.0,1865.0,1747.0,0.0,1759.0,1755.0,107.05009460449219,-45.799800872802734,-47.609989166259766,Left
4833.93701171875,21674,1,1770.0,1765.0,1833.0,1821.0,1757.0,260.0,1763.0,1783.0,107.05009460449219,-45.799800872802734,-47.609989166259766,Left
4835.93701171875,21674,1,1766.0,1759.0,1645.0,1719.0,1759.0,544.0,1763.0,1721.0,107.05009460449219,-45.799800872802734,-47.609989166259766,Left
4837.5654296875,21675,1,1741.0,1759.0,1694.0,1564.0,1742.0,3005.0,1752.0,1717.0,107.05009460449219,-45.799800872802734,-47.609989166259766,Left
4839.5654296875,21675,1,1749.0,1755.0,1499.0,1610.0,1739.0,3790.0,1757.0,1740.0,107.05009460449219,-45.799800872802734,-47.609989166259766,Left
4841.5654296875,21675,1,1746.0,1763.0,1439.0,1675.0,1747.0,3793.0,1759.0,1747.0,107.05009460449219,-45.799800872802734,-47.609989166259766,Left
4843.5654296875,21675,1,1763.0,1763.0,1551.0,1694.0,1753.0,3795.0,1762.0,1749.0,107.05009460449219,-45.799800872802734,-47.609989166259766,Left
4845.5654296875,21675,1,1763.0,1766.0,1693.0,1801.0,1754.0,711.0,1757.0,1749.0,107.05009460449219,-45.799800872802734,-47.609989166259766,Left
4847.2666015625,21676,1,1746.0,1756.0,1720.0,1913.0,1741.0,0.0,1755.0,1736.0,107.05009460449219,-45.799800872802734,-47.609989166259766,Left
4849.2666015625,21676,1,1763.0,1769.0,1856.0,1927.0,1759.0,0.0,1759.0,1767.0,107.05009460449219,-45.799800872802734,-47.609989166259766,Left
4851.2666015625,21676,1,1767.0,1759.0,1887.0,1834.0,1751.0,0.0,1755.0,1753.0,107.05009460449219,-45.799800872802734,-47.609989166259766,Left
4853.2666015625,21676,1,1758.0,1757.0,1913.0,1775.0,1751.0,225.0,1763.0,1743.0,107.05009460449219,-45.799800872802734,-47.609989166259766,Left
4855.2666015625,21676,1,1753.0,1755.0,1772.0,1764.0,1755.0,508.0,1761.0,1739.0,107.05009460449219,-45.799800872802734,-47.609989166259766,Left
4860.1162109375,21677,1,1753.0,1757.0,1779.0,1581.0,1751.0,2937.0,1751.0,1736.0,107.05009460449219,-45.799800872802734,-47.609989166259766,Left
4862.1162109375,21677,1,1751.0,1759.0,1791.0,1567.0,1755.0,3789.0,1762.0,1743.0,107.05009460449219,-45.799800872802734,-47.609989166259766,Left
4864.1162109375,21677,1,1763.0,1763.0,1887.0,1563.0,1752.0,3774.0,1759.0,1748.0,107.07337951660156,-45.63702392578125,-47.59620666503906,Left
4866.1162109375,21677,1,1763.0,1761.0,2031.0,1702.0,1751.0,3795.0,1759.0,1751.0,107.07337951660156,-45.63702392578125,-47.59620666503906,Left
4868.1162109375,21677,1,1769.0,1764.0,1866.0,1827.0,1753.0,845.0,1759.0,1757.0,107.07337951660156,-45.63702392578125,-47.59620666503906,Left
4867.76611328125,21678,1,1753.0,1757.0,1753.0,1940.0,1752.0,0.0,1755.0,1741.0,107.07337951660156,-45.63702392578125,-47.59620666503906,Left
4869.76611328125,21678,1,1753.0,1758.0,1716.0,1970.0,1747.0,0.0,1757.0,1739.0,107.07337951660156,-45.63702392578125,-47.59620666503906,Left
4871.76611328125,21678,1,1753.0,1763.0,1747.0,1911.0,1751.0,0.0,1761.0,1747.0,107.07337951660156,-45.63702392578125,-47.59620666503906,Left
4873.76611328125,21678,1,1747.0,1765.0,1725.0,1811.0,1748.0,191.0,1759.0,1746.0,107.07337951660156,-45.63702392578125,-47.59620666503906,Left
4875.76611328125,21678,1,1751.0,1753.0,1631.0,1764.0,1749.0,743.0,1761.0,1751.0,107.07337951660156,-45.63702392578125,-47.59620666503906,Left
4897.33447265625,21679,1,1757.0,1748.0,1609.0,1597.0,1747.0,3110.0,1759.0,1741.0,107.07337951660156,-45.63702392578125,-47.59620666503906,Left
4899.33447265625,21679,1,1763.0,1753.0,1779.0,1514.0,1742.0,3793.0,1756.0,1748.0,107.07337951660156,-45.63702392578125,-47.59620666503906,Left
4901.33447265625,21679,1,1756.0,1757.0,1930.0,1576.0,1751.0,3790.0,1757.0,1755.0,107.07337951660156,-45.63702392578125,-47.59620666503906,Left
4903.33447265625,21679,1,1756.0,1755.0,1843.0,1708.0,1748.0,3791.0,1757.0,1737.0,107.07337951660156,-45.63702392578125,-47.59620666503906,Left
4905.33447265625,21679,1,1750.0,1758.0,1834.0,1836.0,1757.0,993.0,1761.0,1742.0,107.07337951660156,-45.63702392578125,-47.59620666503906,Left
4898.34814453125,21680,1,1752.0,1757.0,1901.0,1951.0,1743.0,0.0,1757.0,1743.0,107.07337951660156,-45.63702392578125,-47.59620666503906,Left
4900.34814453125,21680,1,1758.0,1765.0,1945.0,1963.0,1762.0,0.0,1757.0,1763.0,107.07337951660156,-45.63702392578125,-47.59620666503906,Left
4902.34814453125,21680,1,1773.0,1773.0,1837.0,1945.0,1759.0,0.0,1759.0,1767.0,107.07337951660156,-45.63702392578125,-47.59620666503906,Left
4904.34814453125,21680,1,1762.0,1759.0,1758.0,1887.0,1749.0,64.0,1757.0,1749.0,107.07337951660156,-45.63702392578125,-47.59620666503906,Left
4906.34814453125,21680,1,1751.0,1759.0,1783.0,1850.0,1752.0,681.0,1759.0,1746.0,107.07337951660156,-45.63702392578125,-47.59620666503906,Left
4898.34814453125,21681,1,1752.0,1763.0,1747.0,1673.0,1748.0,3279.0,1757.0,1739.0,107.07337951660156,-45.63702392578125,-47.59620666503906,Left
4900.34814453125,21681,1,1749.0,1753.0,1743.0,1545.0,1755.0,3789.0,1757.0,1743.0,107.07337951660156,-45.63702392578125,-47.59620666503906,Left
4902.34814453125,21681,1,1751.0,1766.0,1798.0,1595.0,1746.0,3791.0,1755.0,1747.0,107.07337951660156,-45.63702392578125,-47.59620666503906,Left
4904.34814453125,21681,1,1747.0,1764.0,1703.0,1701.0,1740.0,3799.0,1759.0,1734.0,107.07337951660156,-45.63702392578125,-47.59620666503906,Left
4906.34814453125,21681,1,1755.0,1753.0,1716.0,1831.0,1749.0,925.0,1757.0,1743.0,107.07337951660156,-45.63702392578125,-47.59620666503906,Left
4906.64404296875,21682,1,1756.0,1756.0,1816.0,1897.0,1758.0,0.0,1761.0,1756.0,107.07337951660156,-45.63702392578125,-47.59620666503906,Left
4908.64404296875,21682,1,1755.0,1763.0,2013.0,1853.0,1751.0,0.0,1759.0,1747.0,107.07337951660156,-45.63702392578125,-47.59620666503906,Left
4910.64404296875,21682,1,1763.0,1763.0,1946.0,1802.0,1751.0,0.0,1762.0,1751.0,107.07337951660156,-45.63702392578125,-47.59620666503906,Left
4912.64404296875,21682,1,1753.0,1756.0,1827.0,1740.0,1741.0,0.0,1759.0,1749.0,107.07337951660156,-45.63702392578125,-47.59620666503906,Left
4914.64404296875,21682,1,1751.0,1755.0,1643.0,1740.0,1749.0,618.0,1757.0,1747.0,107.07337951660156,-45.63702392578125,-47.59620666503906,Left
4921.10546875,21683,1,1765.0,1758.0,1629.0,1629.0,1755.0,2828.0,1755.0,1753.0,107.07337951660156,-45.63702392578125,-47.59620666503906,Left
4923.10546875,21683,1,1755.0,1757.0,1727.0,1567.0,1751.0,3795.0,1759.0,1746.0,107.07337951660156,-45.63702392578125,-47.59620666503906,Left
4925.10546875,21683,1,1757.0,1764.0,1675.0,1644.0,1757.0,3791.0,1757.0,1751.0,107.07337951660156,-45.63702392578125,-47.59620666503906,Left
4927.10546875,21683,1,1759.0,1765.0,1703.0,1728.0,1753.0,3795.0,1757.0,1749.0,107.07337951660156,-45.63702392578125,-47.59620666503906,Left
4929.10546875,21683,1,1753.0,1757.0,1892.0,1801.0,1746.0,923.0,1759.0,1739.0,106.88184356689453,-45.58872985839844,-47.69290542602539,Left
4926.57763671875,21684,1,1749.0,1752.0,1869.0,1838.0,1739.0,0.0,1756.0,1742.0,106.88184356689453,-45.58872985839844,-47.69290542602539,Left
4928.57763671875,21684,1,1755.0,1757.0,1739.0,1815.0,1742.0,0.0,1759.0,1749.0,106.88184356689453,-45.58872985839844,-47.69290542602539,Left
4930.57763671875,21684,1,1752.0,1755.0,1693.0,1844.0,1743.0,0.0,1759.0,1750.0,106.88184356689453,-45.58872985839844,-47.69290542602539,Left
4932.57763671875,21684,1,1755.0,1763.0,1811.0,1747.0,1756.0,9.0,1759.0,1749.0,106.88184356689453,-45.58872985839844,-47.69290542602539,Left
4934.57763671875,21684,1,1759.0,1765.0,1805.0,1688.0,1753.0,575.0,1762.0,1747.0,106.88184356689453,-45.58872985839844,-47.69290542602539,Left
4937.78515625,21685,1,1753.0,1757.0,1670.0,1581.0,1753.0,2765.0,1757.0,1741.0,106.88184356689453,-45.58872985839844,-47.69290542602539,Left
4939.78515625,21685,1,1749.0,1759.0,1771.0,1519.0,1742.0,3789.0,1759.0,1742.0,106.88184356689453,-45.58872985839844,-47.69290542602539,Left
4941.78515625,21685,1,1763.0,1752.0,1676.0,1531.0,1752.0,3788.0,1757.0,1757.0,106.88184356689453,-45.58872985839844,-47.69290542602539,Left
4943.78515625,21685,1,1751.0,1752.0,1593.0,1682.0,1747.0,3799.0,1761.0,1739.0,106.88184356689453,-45.58872985839844,-47.69290542602539,Left
4945.78515625,21685,1,1751.0,1759.0,1562.0,1801.0,1746.0,842.0,1758.0,1741.0,106.88184356689453,-45.58872985839844,-47.69290542602539,Left
4948.31005859375,21686,1,1751.0,1759.0,1703.0,1949.0,1755.0,0.0,1756.0,1757.0,106.88184356689453,-45.58872985839844,-47.69290542602539,Left
4950.31005859375,21686,1,1756.0,1767.0,1903.0,1889.0,1764.0,0.0,1756.0,1753.0,106.88184356689453,-45.58872985839844,-47.69290542602539,Left
4952.31005859375,21686,1,1765.0,1764.0,1855.0,1865.0,1755.0,0.0,1759.0,1753.0,106.88184356689453,-45.58872985839844,-47.69290542602539,Left
4954.31005859375,21686,1,1769.0,1757.0,1863.0,1807.0,1751.0,37.0,1759.0,1741.0,106.88184356689453,-45.58872985839844,-47.69290542602539,Left
