Timestamp_ms,Packet_Number,Trial_ID,Ch1,Ch2,Ch3,Ch4,Ch5,Ch6,Ch7,Ch8,Ch9,Ch10,Ch11,Label
3311.7607421875,15997,1,1703.0,1704.0,1751.0,1477.0,1587.0,1837.0,1753.0,1741.0,-170.8195343017578,6.614401340484619,45.90165710449219,Left
3313.7607421875,15997,1,1768.0,1740.0,1753.0,1492.0,1705.0,1723.0,1755.0,1747.0,-170.8195343017578,6.614401340484619,45.90165710449219,Left
3315.7607421875,15997,1,1784.0,1757.0,1755.0,1663.0,1801.0,1675.0,1753.0,1749.0,-170.8195343017578,6.614401340484619,45.90165710449219,Left
3317.7607421875,15997,1,1791.0,1781.0,1755.0,1717.0,1853.0,1670.0,1757.0,1743.0,-170.8195343017578,6.614401340484619,45.90165710449219,Left
3319.7607421875,15997,1,1779.0,1789.0,1756.0,1787.0,1868.0,1638.0,1763.0,1747.0,-170.8195343017578,6.614401340484619,45.90165710449219,Left
3311.7607421875,15998,1,1799.0,1801.0,1755.0,1912.0,1867.0,1674.0,1762.0,1748.0,-170.8195343017578,6.614401340484619,45.90165710449219,Left
3313.7607421875,15998,1,1755.0,1775.0,1752.0,1853.0,1779.0,1756.0,1761.0,1746.0,-170.8195343017578,6.614401340484619,45.90165710449219,Left
3315.7607421875,15998,1,1762.0,1771.0,1753.0,1837.0,1766.0,1780.0,1763.0,1747.0,-170.8195343017578,6.614401340484619,45.90165710449219,Left
3317.7607421875,15998,1,1703.0,1738.0,1752.0,1624.0,1645.0,1840.0,1757.0,1747.0,-170.8195343017578,6.614401340484619,45.90165710449219,Left
3319.7607421875,15998,1,1719.0,1724.0,1752.0,1547.0,1595.0,1907.0,1755.0,1749.0,-170.8195343017578,6.614401340484619,45.90165710449219,Left
3316.4599609375,15999,1,1705.0,1707.0,1753.0,1455.0,1595.0,1839.0,1751.0,1743.0,-170.8195343017578,6.614401340484619,45.90165710449219,Left
3318.4599609375,15999,1,1752.0,1739.0,1754.0,1630.0,1703.0,1740.0,1753.0,1745.0,-170.8195343017578,6.614401340484619,45.90165710449219,Left
3320.4599609375,15999,1,1775.0,1765.0,1753.0,1745.0,1797.0,1678.0,1754.0,1747.0,-170.8195343017578,6.614401340484619,45.90165710449219,Left
3322.4599609375,15999,1,1787.0,1783.0,1753.0,1849.0,1845.0,1663.0,1757.0,1741.0,-170.8195343017578,6.614401340484619,45.90165710449219,Left
3324.4599609375,15999,1,1781.0,1785.0,1752.0,1897.0,1865.0,1637.0,1762.0,1747.0,-170.8195343017578,6.614401340484619,45.90165710449219,Left
3316.4599609375,16000,1,1781.0,1798.0,1753.0,1989.0,1863.0,1671.0,1765.0,1746.0,-170.8195343017578,6.614401340484619,45.90165710449219,Left
3318.4599609375,16000,1,1767.0,1773.0,1755.0,2009.0,1785.0,1764.0,1761.0,1746.0,-170.8195343017578,6.614401340484619,45.90165710449219,Left
3320.4599609375,16000,1,1755.0,1771.0,1752.0,1977.0,1771.0,1781.0,1763.0,1742.0,-170.8195343017578,6.614401340484619,45.90165710449219,Left
3322.4599609375,16000,1,1728.0,1737.0,1755.0,1791.0,1651.0,1835.0,1757.0,1745.0,-170.8195343017578,6.614401340484619,45.90165710449219,Left
3324.4599609375,16000,1,1717.0,1728.0,1755.0,1647.0,1591.0,1904.0,1755.0,1743.0,-170.8195343017578,6.614401340484619,45.90165710449219,Left
3316.4599609375,16001,1,1719.0,1701.0,1747.0,1529.0,1597.0,1843.0,1752.0,1747.0,-170.8195343017578,6.614401340484619,45.90165710449219,Left
3318.4599609375,16001,1,1765.0,1735.0,1753.0,1579.0,1709.0,1741.0,1749.0,1735.0,-170.8195343017578,6.614401340484619,45.90165710449219,Left
3320.4599609375,16001,1,1779.0,1759.0,1752.0,1652.0,1785.0,1671.0,1757.0,1747.0,-170.8195343017578,6.614401340484619,45.90165710449219,Left
3322.4599609375,16001,1,1791.0,1779.0,1752.0,1775.0,1849.0,1661.0,1758.0,1747.0,-170.8195343017578,6.614401340484619,45.90165710449219,Left
3324.4599609375,16001,1,1785.0,1780.0,1755.0,1988.0,1865.0,1629.0,1763.0,1741.0,-170.8195343017578,6.614401340484619,45.90165710449219,Left
3319.484619140625,16002,1,1788.0,1801.0,1748.0,2173.0,1862.0,1671.0,1763.0,1745.0,-170.8195343017578,6.614401340484619,45.90165710449219,Left
3321.484619140625,16002,1,1772.0,1775.0,1753.0,2065.0,1781.0,1755.0,1762.0,1747.0,-170.8195343017578,6.614401340484619,45.90165710449219,Left
3323.484619140625,16002,1,1766.0,1767.0,1747.0,1976.0,1765.0,1774.0,1759.0,1747.0,-170.8195343017578,6.614401340484619,45.90165710449219,Left
3325.484619140625,16002,1,1717.0,1741.0,1754.0,1907.0,1645.0,1831.0,1756.0,1746.0,-170.8195343017578,6.614401340484619,45.90165710449219,Left
3327.484619140625,16002,1,1709.0,1723.0,1751.0,1657.0,1611.0,1909.0,1754.0,1747.0,-170.8195343017578,6.614401340484619,45.90165710449219,Left
3319.484619140625,16003,1,1703.0,1707.0,1751.0,1605.0,1597.0,1843.0,1753.0,1747.0,-170.8195343017578,6.614401340484619,45.90165710449219,Left
3321.484619140625,16003,1,1750.0,1727.0,1753.0,1555.0,1703.0,1745.0,1752.0,1748.0,-170.81961059570312,6.629419803619385,45.91205978393555,Left
3323.484619140625,16003,1,1771.0,1759.0,1755.0,1637.0,1782.0,1676.0,1752.0,1746.0,-170.81961059570312,6.629419803619385,45.91205978393555,Left
3325.484619140625,16003,1,1800.0,1775.0,1753.0,1830.0,1839.0,1663.0,1756.0,1746.0,-170.81961059570312,6.629419803619385,45.91205978393555,Left
3327.484619140625,16003,1,1781.0,1784.0,1755.0,1975.0,1868.0,1635.0,1763.0,1747.0,-170.81961059570312,6.629419803619385,45.91205978393555,Left
3319.484619140625,16004,1,1787.0,1801.0,1755.0,1995.0,1870.0,1671.0,1763.0,1747.0,-170.81961059570312,6.629419803619385,45.91205978393555,Left
3321.484619140625,16004,1,1767.0,1784.0,1757.0,1917.0,1792.0,1753.0,1759.0,1741.0,-170.81961059570312,6.629419803619385,45.91205978393555,Left
3323.484619140625,16004,1,1771.0,1769.0,1753.0,2007.0,1755.0,1786.0,1763.0,1747.0,-170.81961059570312,6.629419803619385,45.91205978393555,Left
3325.484619140625,16004,1,1716.0,1727.0,1753.0,1864.0,1653.0,1835.0,1758.0,1747.0,-170.81961059570312,6.629419803619385,45.91205978393555,Left
3327.484619140625,16004,1,1723.0,1721.0,1752.0,1621.0,1607.0,1901.0,1755.0,1747.0,-170.81961059570312,6.629419803619385,45.91205978393555,Left
3319.484619140625,16005,1,1707.0,1703.0,1754.0,1542.0,1595.0,1839.0,1753.0,1747.0,-170.81961059570312,6.629419803619385,45.91205978393555,Left
3321.484619140625,16005,1,1751.0,1736.0,1752.0,1724.0,1701.0,1740.0,1753.0,1747.0,-170.81961059570312,6.629419803619385,45.91205978393555,Left
3323.484619140625,16005,1,1775.0,1755.0,1755.0,1749.0,1785.0,1677.0,1755.0,1746.0,-170.81961059570312,6.629419803619385,45.91205978393555,Left
3325.484619140625,16005,1,1805.0,1789.0,1745.0,1877.0,1843.0,1659.0,1757.0,1741.0,-170.81961059570312,6.629419803619385,45.91205978393555,Left
3327.484619140625,16005,1,1801.0,1784.0,1756.0,1811.0,1869.0,1634.0,1763.0,1748.0,-170.81961059570312,6.629419803619385,45.91205978393555,Left
3325.712646484375,16006,1,1785.0,1785.0,1751.0,1865.0,1871.0,1673.0,1762.0,1743.0,-170.81961059570312,6.629419803619385,45.91205978393555,Left
3327.712646484375,16006,1,1753.0,1781.0,1754.0,1755.0,1783.0,1757.0,1761.0,1747.0,-170.81961059570312,6.629419803619385,45.91205978393555,Left
3329.712646484375,16006,1,1753.0,1772.0,1752.0,1790.0,1769.0,1767.0,1763.0,1745.0,-170.81961059570312,6.629419803619385,45.91205978393555,Left
3331.712646484375,16006,1,1716.0,1733.0,1755.0,1640.0,1655.0,1843.0,1753.0,1745.0,-170.81961059570312,6.629419803619385,45.91205978393555,Left
3333.712646484375,16006,1,1737.0,1723.0,1755.0,1565.0,1607.0,1897.0,1751.0,1747.0,-170.81961059570312,6.629419803619385,45.91205978393555,Left
3355.173583984375,16007,1,1705.0,1707.0,1750.0,1446.0,1593.0,1839.0,1751.0,1747.0,-170.81961059570312,6.629419803619385,45.91205978393555,Left
3357.173583984375,16007,1,1754.0,1727.0,1751.0,1502.0,1701.0,1739.0,1754.0,1747.0,-170.81961059570312,6.629419803619385,45.91205978393555,Left
3359.173583984375,16007,1,1773.0,1767.0,1755.0,1599.0,1784.0,1682.0,1753.0,1749.0,-170.81961059570312,6.629419803619385,45.91205978393555,Left
3361.173583984375,16007,1,1809.0,1780.0,1754.0,1717.0,1847.0,1671.0,1757.0,1747.0,-170.81961059570312,6.629419803619385,45.91205978393555,Left
3363.173583984375,16007,1,1784.0,1776.0,1753.0,1805.0,1862.0,1635.0,1763.0,1747.0,-170.81961059570312,6.629419803619385,45.91205978393555,Left
3369.404296875,16008,1,1789.0,1800.0,1739.0,1884.0,1867.0,1663.0,1763.0,1747.0,-170.81961059570312,6.629419803619385,45.91205978393555,Left
3371.404296875,16008,1,1769.0,1783.0,1754.0,1837.0,1784.0,1762.0,1763.0,1747.0,-170.81961059570312,6.629419803619385,45.91205978393555,Left
3373.404296875,16008,1,1765.0,1773.0,1753.0,1780.0,1771.0,1765.0,1759.0,1747.0,-170.81961059570312,6.629419803619385,45.91205978393555,Left
3375.404296875,16008,1,1710.0,1741.0,1753.0,1613.0,1656.0,1839.0,1756.0,1747.0,-170.81961059570312,6.629419803619385,45.91205978393555,Left
3377.404296875,16008,1,1715.0,1721.0,1754.0,1496.0,1609.0,1903.0,1753.0,1748.0,-170.81961059570312,6.629419803619385,45.91205978393555,Left
3370.803466796875,16009,1,1705.0,1706.0,1753.0,1365.0,1589.0,1843.0,1753.0,1749.0,-170.81961059570312,6.629419803619385,45.91205978393555,Left
3372.803466796875,16009,1,1751.0,1734.0,1752.0,1369.0,1695.0,1741.0,1753.0,1751.0,-170.81961059570312,6.629419803619385,45.91205978393555,Left
3374.803466796875,16009,1,1775.0,1750.0,1754.0,1549.0,1787.0,1676.0,1755.0,1748.0,-170.81961059570312,6.629419803619385,45.91205978393555,Left
3376.803466796875,16009,1,1787.0,1779.0,1758.0,1763.0,1855.0,1663.0,1755.0,1748.0,-170.81961059570312,6.629419803619385,45.91205978393555,Left
3378.803466796875,16009,1,1780.0,1784.0,1755.0,1855.0,1871.0,1640.0,1759.0,1742.0,-170.8222198486328,6.62235164642334,45.91781997680664,Left
3370.803466796875,16010,1,1779.0,1823.0,1749.0,1976.0,1871.0,1674.0,1763.0,1741.0,-170.8222198486328,6.62235164642334,45.91781997680664,Left
3372.803466796875,16010,1,1755.0,1775.0,1755.0,1965.0,1785.0,1757.0,1759.0,1749.0,-170.8222198486328,6.62235164642334,45.91781997680664,Left
3374.803466796875,16010,1,1767.0,1772.0,1752.0,1875.0,1767.0,1765.0,1763.0,1749.0,-170.8222198486328,6.62235164642334,45.91781997680664,Left
3376.803466796875,16010,1,1717.0,1735.0,1753.0,1740.0,1647.0,1837.0,1753.0,1746.0,-170.8222198486328,6.62235164642334,45.91781997680664,Left
3378.803466796875,16010,1,1711.0,1739.0,1752.0,1635.0,1611.0,1893.0,1753.0,1741.0,-170.8222198486328,6.62235164642334,45.91781997680664,Left
3370.803466796875,16011,1,1706.0,1706.0,1753.0,1492.0,1593.0,1837.0,1752.0,1743.0,-170.8222198486328,6.62235164642334,45.91781997680664,Left
3372.803466796875,16011,1,1759.0,1738.0,1753.0,1583.0,1707.0,1749.0,1753.0,1747.0,-170.8222198486328,6.62235164642334,45.91781997680664,Left
3374.803466796875,16011,1,1779.0,1769.0,1755.0,1737.0,1789.0,1677.0,1753.0,1743.0,-170.8222198486328,6.62235164642334,45.91781997680664,Left
3376.803466796875,16011,1,1804.0,1787.0,1753.0,1832.0,1845.0,1659.0,1758.0,1745.0,-170.8222198486328,6.62235164642334,45.91781997680664,Left
3378.803466796875,16011,1,1781.0,1784.0,1753.0,1908.0,1865.0,1643.0,1763.0,1747.0,-170.8222198486328,6.62235164642334,45.91781997680664,Left
3401.621826171875,16012,1,1785.0,1800.0,1749.0,2078.0,1871.0,1671.0,1763.0,1747.0,-170.8222198486328,6.62235164642334,45.91781997680664,Left
3403.621826171875,16012,1,1753.0,1773.0,1753.0,1983.0,1797.0,1755.0,1757.0,1747.0,-170.8222198486328,6.62235164642334,45.91781997680664,Left
3405.621826171875,16012,1,1767.0,1778.0,1755.0,1967.0,1779.0,1759.0,1763.0,1747.0,-170.8222198486328,6.62235164642334,45.91781997680664,Left
3407.621826171875,16012,1,1707.0,1737.0,1752.0,1829.0,1655.0,1839.0,1756.0,1742.0,-170.8222198486328,6.62235164642334,45.91781997680664,Left
3409.621826171875,16012,1,1711.0,1721.0,1755.0,1763.0,1598.0,1885.0,1753.0,1747.0,-170.8222198486328,6.62235164642334,45.91781997680664,Left
3401.621826171875,16013,1,1705.0,1705.0,1753.0,1573.0,1589.0,1840.0,1750.0,1747.0,-170.8222198486328,6.62235164642334,45.91781997680664,Left
3403.621826171875,16013,1,1764.0,1733.0,1752.0,1575.0,1708.0,1743.0,1753.0,1743.0,-170.8222198486328,6.62235164642334,45.91781997680664,Left
3405.621826171875,16013,1,1771.0,1763.0,1756.0,1723.0,1786.0,1679.0,1755.0,1745.0,-170.8222198486328,6.62235164642334,45.91781997680664,Left
3407.621826171875,16013,1,1797.0,1783.0,1755.0,1843.0,1862.0,1661.0,1759.0,1742.0,-170.8222198486328,6.62235164642334,45.91781997680664,Left
3409.621826171875,16013,1,1790.0,1780.0,1755.0,2013.0,1855.0,1639.0,1763.0,1743.0,-170.8222198486328,6.62235164642334,45.91781997680664,Left
3409.29150390625,16014,1,1785.0,1800.0,1755.0,2003.0,1877.0,1663.0,1763.0,1748.0,-170.8222198486328,6.62235164642334,45.91781997680664,Left
3411.29150390625,16014,1,1757.0,1774.0,1753.0,1988.0,1782.0,1758.0,1757.0,1748.0,-170.8222198486328,6.62235164642334,45.91781997680664,Left
3413.29150390625,16014,1,1759.0,1773.0,1753.0,1951.0,1767.0,1759.0,1758.0,1748.0,-170.8222198486328,6.62235164642334,45.91781997680664,Left
3415.29150390625,16014,1,1717.0,1736.0,1753.0,1803.0,1651.0,1844.0,1755.0,1747.0,-170.8222198486328,6.62235164642334,45.91781997680664,Left
3417.29150390625,16014,1,1720.0,1724.0,1751.0,1621.0,1603.0,1892.0,1752.0,1747.0,-170.8222198486328,6.62235164642334,45.91781997680664,Left
3433.451904296875,16015,1,1701.0,1702.0,1749.0,1383.0,1593.0,1837.0,1737.0,1740.0,-170.8222198486328,6.62235164642334,45.91781997680664,Left
3435.451904296875,16015,1,1752.0,1733.0,1751.0,1471.0,1705.0,1742.0,1753.0,1747.0,-170.8222198486328,6.62235164642334,45.91781997680664,Left
3437.451904296875,16015,1,1780.0,1757.0,1753.0,1545.0,1785.0,1677.0,1755.0,1747.0,-170.8222198486328,6.62235164642334,45.91781997680664,Left
3439.451904296875,16015,1,1798.0,1783.0,1751.0,1651.0,1842.0,1670.0,1759.0,1747.0,-170.8222198486328,6.62235164642334,45.91781997680664,Left
3441.451904296875,16015,1,1785.0,1787.0,1756.0,1786.0,1864.0,1647.0,1759.0,1748.0,-170.8222198486328,6.62235164642334,45.91781997680664,Left
3434.708740234375,16016,1,1791.0,1799.0,1752.0,1827.0,1873.0,1669.0,1764.0,1748.0,-170.8222198486328,6.62235164642334,45.91781997680664,Left
3436.708740234375,16016,1,1757.0,1774.0,1752.0,1845.0,1786.0,1763.0,1757.0,1747.0,-170.8222198486328,6.62235164642334,45.91781997680664,Left
3438.708740234375,16016,1,1759.0,1780.0,1751.0,1823.0,1773.0,1755.0,1762.0,1742.0,-170.8222198486328,6.62235164642334,45.91781997680664,Left
3440.708740234375,16016,1,1703.0,1735.0,1755.0,1674.0,1658.0,1847.0,1757.0,1747.0,-170.8222198486328,6.62235164642334,45.91781997680664,Left
3442.708740234375,16016,1,1733.0,1725.0,1755.0,1604.0,1597.0,1895.0,1753.0,1747.0,-170.8222198486328,6.62235164642334,45.91781997680664,Left
3450.644775390625,16017,1,1707.0,1705.0,1752.0,1533.0,1595.0,1846.0,1753.0,1747.0,-170.8222198486328,6.62235164642334,45.91781997680664,Left
3452.644775390625,16017,1,1747.0,1726.0,1753.0,1619.0,1699.0,1740.0,1753.0,1749.0,-170.8222198486328,6.62235164642334,45.91781997680664,Left
3454.644775390625,16017,1,1775.0,1759.0,1754.0,1752.0,1787.0,1678.0,1755.0,1747.0,-170.8222198486328,6.62235164642334,45.91781997680664,Left
3456.644775390625,16017,1,1800.0,1781.0,1755.0,1843.0,1843.0,1661.0,1757.0,1749.0,-170.8222198486328,6.62235164642334,45.91781997680664,Left
3458.644775390625,16017,1,1796.0,1779.0,1752.0,1819.0,1861.0,1643.0,1761.0,1746.0,-170.8222198486328,6.62235164642334,45.91781997680664,Left
3450.644775390625,16018,1,1787.0,1812.0,1747.0,1894.0,1879.0,1669.0,1757.0,1737.0,-170.8222198486328,6.62235164642334,45.91781997680664,Left
3452.644775390625,16018,1,1753.0,1774.0,1753.0,1976.0,1779.0,1758.0,1762.0,1747.0,-170.8222198486328,6.62235164642334,45.91781997680664,Left
3454.644775390625,16018,1,1768.0,1773.0,1755.0,2014.0,1774.0,1764.0,1758.0,1747.0,-170.8222198486328,6.62235164642334,45.91781997680664,Left
3456.644775390625,16018,1,1709.0,1737.0,1753.0,1831.0,1656.0,1844.0,1753.0,1747.0,-170.8222198486328,6.62235164642334,45.91781997680664,Left
3458.644775390625,16018,1,1718.0,1727.0,1751.0,1815.0,1613.0,1885.0,1751.0,1747.0,-170.8222198486328,6.62235164642334,45.91781997680664,Left
3498.520751953125,16019,1,1717.0,1707.0,1750.0,1654.0,1589.0,1845.0,1754.0,1747.0,-170.8222198486328,6.62235164642334,45.91781997680664,Left
3500.520751953125,16019,1,1749.0,1733.0,1753.0,1703.0,1704.0,1739.0,1757.0,1746.0,-170.8222198486328,6.62235164642334,45.91781997680664,Left
3502.520751953125,16019,1,1775.0,1758.0,1752.0,1720.0,1787.0,1676.0,1755.0,1746.0,-170.8222198486328,6.62235164642334,45.91781997680664,Left
3504.520751953125,16019,1,1800.0,1775.0,1753.0,1737.0,1848.0,1659.0,1750.0,1742.0,-170.8222198486328,6.62235164642334,45.91781997680664,Left
3506.520751953125,16019,1,1781.0,1783.0,1751.0,1863.0,1868.0,1643.0,1763.0,1747.0,-170.8222198486328,6.62235164642334,45.91781997680664,Left
3498.520751953125,16020,1,1783.0,1799.0,1752.0,1911.0,1871.0,1672.0,1763.0,1746.0,-170.8222198486328,6.62235164642334,45.91781997680664,Left
3500.520751953125,16020,1,1765.0,1785.0,1753.0,1831.0,1789.0,1763.0,1755.0,1749.0,-170.8222198486328,6.62235164642334,45.91781997680664,Left
3502.520751953125,16020,1,1765.0,1771.0,1755.0,1895.0,1772.0,1763.0,1763.0,1743.0,-170.8222198486328,6.62235164642334,45.91781997680664,Left
3504.520751953125,16020,1,1708.0,1739.0,1755.0,1673.0,1656.0,1836.0,1755.0,1743.0,-170.8222198486328,6.62235164642334,45.91781997680664,Left
3506.520751953125,16020,1,1717.0,1734.0,1755.0,1560.0,1619.0,1884.0,1754.0,1747.0,-170.8222198486328,6.62235164642334,45.91781997680664,Left
3513.95947265625,16021,1,1702.0,1705.0,1754.0,1497.0,1593.0,1843.0,1755.0,1747.0,-170.8222198486328,6.62235164642334,45.91781997680664,Left
3515.95947265625,16021,1,1755.0,1733.0,1753.0,1512.0,1705.0,1749.0,1753.0,1747.0,-170.8222198486328,6.62235164642334,45.91781997680664,Left
3517.95947265625,16021,1,1783.0,1763.0,1754.0,1611.0,1782.0,1683.0,1755.0,1747.0,-170.8222198486328,6.62235164642334,45.91781997680664,Left
3519.95947265625,16021,1,1803.0,1783.0,1753.0,1695.0,1845.0,1661.0,1757.0,1747.0,-170.8222198486328,6.62235164642334,45.91781997680664,Left
3521.95947265625,16021,1,1781.0,1781.0,1751.0,1774.0,1861.0,1644.0,1757.0,1748.0,-170.8222198486328,6.62235164642334,45.91781997680664,Left
3513.95947265625,16022,1,1797.0,1801.0,1799.0,1910.0,1869.0,1668.0,1765.0,1747.0,-170.8222198486328,6.62235164642334,45.91781997680664,Left
3515.95947265625,16022,1,1763.0,1783.0,1753.0,1837.0,1783.0,1757.0,1763.0,1747.0,-170.8222198486328,6.62235164642334,45.91781997680664,Left
3517.95947265625,16022,1,1764.0,1779.0,1753.0,1847.0,1775.0,1757.0,1757.0,1748.0,-170.8222198486328,6.62235164642334,45.91781997680664,Left
3519.95947265625,16022,1,1709.0,1734.0,1753.0,1628.0,1655.0,1837.0,1756.0,1748.0,-170.8222198486328,6.62235164642334,45.91781997680664,Left
3521.95947265625,16022,1,1727.0,1733.0,1755.0,1541.0,1611.0,1883.0,1753.0,1743.0,-170.8212432861328,6.621161460876465,45.9334602355957,Left
3524.770751953125,16023,1,1708.0,1705.0,1749.0,1423.0,1591.0,1847.0,1755.0,1747.0,-170.8212432861328,6.621161460876465,45.9334602355957,Left
3526.770751953125,16023,1,1758.0,1741.0,1754.0,1453.0,1696.0,1743.0,1752.0,1738.0,-170.8212432861328,6.621161460876465,45.9334602355957,Left
3528.770751953125,16023,1,1785.0,1759.0,1754.0,1557.0,1783.0,1684.0,1755.0,1749.0,-170.8212432861328,6.621161460876465,45.9334602355957,Left
3530.770751953125,16023,1,1791.0,1780.0,1753.0,1775.0,1851.0,1659.0,1757.0,1741.0,-170.8212432861328,6.621161460876465,45.9334602355957,Left
3532.770751953125,16023,1,1789.0,1781.0,1753.0,1843.0,1855.0,1645.0,1763.0,1747.0,-170.8212432861328,6.621161460876465,45.9334602355957,Left
3524.770751953125,16024,1,1805.0,1805.0,1755.0,1964.0,1874.0,1669.0,1763.0,1749.0,-170.8212432861328,6.621161460876465,45.9334602355957,Left
3526.770751953125,16024,1,1757.0,1785.0,1751.0,1941.0,1803.0,1757.0,1763.0,1743.0,-170.8212432861328,6.621161460876465,45.9334602355957,Left
3528.770751953125,16024,1,1763.0,1783.0,1755.0,1977.0,1773.0,1757.0,1763.0,1747.0,-170.8212432861328,6.621161460876465,45.9334602355957,Left
3530.770751953125,16024,1,1711.0,1728.0,1755.0,1775.0,1651.0,1848.0,1753.0,1747.0,-170.8212432861328,6.621161460876465,45.9334602355957,Left
3532.770751953125,16024,1,1715.0,1733.0,1757.0,1700.0,1617.0,1882.0,1751.0,1747.0,-170.8212432861328,6.621161460876465,45.9334602355957,Left
3529.594482421875,16025,1,1705.0,1703.0,1754.0,1529.0,1591.0,1849.0,1752.0,1747.0,-170.8212432861328,6.621161460876465,45.9334602355957,Left
3531.594482421875,16025,1,1754.0,1735.0,1753.0,1553.0,1689.0,1752.0,1755.0,1745.0,-170.8212432861328,6.621161460876465,45.9334602355957,Left
3533.594482421875,16025,1,1782.0,1763.0,1753.0,1686.0,1775.0,1687.0,1754.0,1747.0,-170.8212432861328,6.621161460876465,45.9334602355957,Left
3535.594482421875,16025,1,1787.0,1775.0,1755.0,1850.0,1845.0,1660.0,1757.0,1747.0,-170.8212432861328,6.621161460876465,45.9334602355957,Left
3537.594482421875,16025,1,1775.0,1781.0,1753.0,1937.0,1861.0,1645.0,1759.0,1746.0,-170.8212432861328,6.621161460876465,45.9334602355957,Left
3529.594482421875,16026,1,1789.0,1802.0,1753.0,2101.0,1873.0,1663.0,1757.0,1749.0,-170.8212432861328,6.621161460876465,45.9334602355957,Left
3531.594482421875,16026,1,1755.0,1781.0,1753.0,2010.0,1798.0,1755.0,1763.0,1751.0,-170.8212432861328,6.621161460876465,45.9334602355957,Left
3533.594482421875,16026,1,1762.0,1779.0,1756.0,1971.0,1773.0,1757.0,1763.0,1743.0,-170.8212432861328,6.621161460876465,45.9334602355957,Left
3535.594482421875,16026,1,1707.0,1741.0,1753.0,1830.0,1640.0,1845.0,1755.0,1747.0,-170.8212432861328,6.621161460876465,45.9334602355957,Left
3537.594482421875,16026,1,1711.0,1723.0,1754.0,1670.0,1605.0,1903.0,1752.0,1743.0,-170.8212432861328,6.621161460876465,45.9334602355957,Left
3592.4091796875,16027,1,1704.0,1703.0,1754.0,1553.0,1595.0,1847.0,1753.0,1745.0,-170.8212432861328,6.621161460876465,45.9334602355957,Left
3594.4091796875,16027,1,1748.0,1736.0,1754.0,1611.0,1701.0,1747.0,1755.0,1745.0,-170.8212432861328,6.621161460876465,45.9334602355957,Left
3596.4091796875,16027,1,1772.0,1756.0,1753.0,1625.0,1784.0,1685.0,1752.0,1748.0,-170.8212432861328,6.621161460876465,45.9334602355957,Left
3598.4091796875,16027,1,1787.0,1780.0,1754.0,1748.0,1838.0,1655.0,1755.0,1747.0,-170.8212432861328,6.621161460876465,45.9334602355957,Left
3600.4091796875,16027,1,1780.0,1784.0,1755.0,1893.0,1861.0,1645.0,1758.0,1752.0,-170.8212432861328,6.621161460876465,45.9334602355957,Left
3592.4091796875,16028,1,1801.0,1801.0,1755.0,1897.0,1877.0,1661.0,1762.0,1748.0,-170.8212432861328,6.621161460876465,45.9334602355957,Left
3594.4091796875,16028,1,1765.0,1783.0,1755.0,1852.0,1790.0,1755.0,1763.0,1743.0,-170.8212432861328,6.621161460876465,45.9334602355957,Left
3596.4091796875,16028,1,1772.0,1778.0,1753.0,1853.0,1771.0,1752.0,1764.0,1747.0,-170.8212432861328,6.621161460876465,45.9334602355957,Left
3598.4091796875,16028,1,1707.0,1737.0,1753.0,1715.0,1651.0,1839.0,1754.0,1743.0,-170.8212432861328,6.621161460876465,45.9334602355957,Left
3600.4091796875,16028,1,1716.0,1723.0,1755.0,1611.0,1620.0,1877.0,1754.0,1741.0,-170.8212432861328,6.621161460876465,45.9334602355957,Left
3594.425537109375,16029,1,1704.0,1705.0,1756.0,1452.0,1593.0,1854.0,1754.0,1743.0,-170.8212432861328,6.621161460876465,45.9334602355957,Left
3596.425537109375,16029,1,1747.0,1725.0,1755.0,1621.0,1693.0,1745.0,1755.0,1746.0,-170.80821228027344,6.614997386932373,45.94020462036133,Left
3598.425537109375,16029,1,1785.0,1755.0,1752.0,1813.0,1784.0,1685.0,1755.0,1743.0,-170.80821228027344,6.614997386932373,45.94020462036133,Left
3600.425537109375,16029,1,1788.0,1784.0,1756.0,1849.0,1847.0,1662.0,1758.0,1742.0,-170.80821228027344,6.614997386932373,45.94020462036133,Left
3602.425537109375,16029,1,1789.0,1783.0,1753.0,1822.0,1861.0,1651.0,1763.0,1746.0,-170.80821228027344,6.614997386932373,45.94020462036133,Left
3594.425537109375,16030,1,1791.0,1802.0,1747.0,2001.0,1875.0,1661.0,1758.0,1747.0,-170.80821228027344,6.614997386932373,45.94020462036133,Left
3596.425537109375,16030,1,1756.0,1779.0,1753.0,2057.0,1771.0,1757.0,1757.0,1746.0,-170.80821228027344,6.614997386932373,45.94020462036133,Left
3598.425537109375,16030,1,1763.0,1779.0,1755.0,1961.0,1767.0,1763.0,1763.0,1742.0,-170.80821228027344,6.614997386932373,45.94020462036133,Left
3600.425537109375,16030,1,1715.0,1741.0,1752.0,1770.0,1675.0,1838.0,1755.0,1747.0,-170.80821228027344,6.614997386932373,45.94020462036133,Left
3602.425537109375,16030,1,1723.0,1724.0,1755.0,1671.0,1623.0,1881.0,1753.0,1746.0,-170.80821228027344,6.614997386932373,45.94020462036133,Left
3609.946044921875,16031,1,1705.0,1707.0,1752.0,1493.0,1587.0,1853.0,1755.0,1743.0,-170.80821228027344,6.614997386932373,45.94020462036133,Left
3611.946044921875,16031,1,1740.0,1723.0,1753.0,1517.0,1695.0,1747.0,1755.0,1748.0,-170.80821228027344,6.614997386932373,45.94020462036133,Left
3613.946044921875,16031,1,1769.0,1754.0,1755.0,1613.0,1788.0,1689.0,1755.0,1749.0,-170.80821228027344,6.614997386932373,45.94020462036133,Left
3615.946044921875,16031,1,1791.0,1783.0,1753.0,1625.0,1839.0,1657.0,1751.0,1739.0,-170.80821228027344,6.614997386932373,45.94020462036133,Left
3617.946044921875,16031,1,1773.0,1784.0,1751.0,1860.0,1853.0,1645.0,1761.0,1749.0,-170.80821228027344,6.614997386932373,45.94020462036133,Left
3609.946044921875,16032,1,1787.0,1805.0,1753.0,2075.0,1875.0,1658.0,1763.0,1743.0,-170.80821228027344,6.614997386932373,45.94020462036133,Left
3611.946044921875,16032,1,1775.0,1782.0,1754.0,1975.0,1784.0,1753.0,1758.0,1747.0,-170.80821228027344,6.614997386932373,45.94020462036133,Left
3613.946044921875,16032,1,1781.0,1779.0,1755.0,1963.0,1772.0,1755.0,1763.0,1747.0,-170.80821228027344,6.614997386932373,45.94020462036133,Left
3615.946044921875,16032,1,1695.0,1746.0,1755.0,1785.0,1650.0,1839.0,1757.0,1747.0,-170.80821228027344,6.614997386932373,45.94020462036133,Left
3617.946044921875,16032,1,1714.0,1725.0,1752.0,1663.0,1611.0,1881.0,1755.0,1747.0,-170.80821228027344,6.614997386932373,45.94020462036133,Left
3621.019287109375,16033,1,1691.0,1699.0,1753.0,1477.0,1575.0,1851.0,1751.0,1749.0,-170.80821228027344,6.614997386932373,45.94020462036133,Left
3623.019287109375,16033,1,1751.0,1720.0,1753.0,1545.0,1689.0,1748.0,1753.0,1747.0,-170.80821228027344,6.614997386932373,45.94020462036133,Left
3625.019287109375,16033,1,1786.0,1753.0,1752.0,1623.0,1785.0,1691.0,1755.0,1747.0,-170.80821228027344,6.614997386932373,45.94020462036133,Left
3627.019287109375,16033,1,1791.0,1779.0,1755.0,1709.0,1843.0,1655.0,1757.0,1746.0,-170.80821228027344,6.614997386932373,45.94020462036133,Left
3629.019287109375,16033,1,1790.0,1784.0,1754.0,1824.0,1861.0,1647.0,1759.0,1749.0,-170.80821228027344,6.614997386932373,45.94020462036133,Left
3621.019287109375,16034,1,1805.0,1807.0,1751.0,2037.0,1877.0,1655.0,1763.0,1743.0,-170.80821228027344,6.614997386932373,45.94020462036133,Left
3623.019287109375,16034,1,1768.0,1786.0,1753.0,1988.0,1803.0,1751.0,1764.0,1747.0,-170.80821228027344,6.614997386932373,45.94020462036133,Left
3625.019287109375,16034,1,1757.0,1783.0,1751.0,1927.0,1783.0,1753.0,1763.0,1747.0,-170.80821228027344,6.614997386932373,45.94020462036133,Left
3627.019287109375,16034,1,1707.0,1737.0,1754.0,1703.0,1655.0,1844.0,1757.0,1743.0,-170.80821228027344,6.614997386932373,45.94020462036133,Left
3629.019287109375,16034,1,1700.0,1733.0,1751.0,1621.0,1617.0,1876.0,1755.0,1746.0,-170.80821228027344,6.614997386932373,45.94020462036133,Left
3704.808837890625,16035,1,1693.0,1696.0,1755.0,1395.0,1580.0,1849.0,1755.0,1743.0,-170.80821228027344,6.614997386932373,45.94020462036133,Left
3706.808837890625,16035,1,1771.0,1724.0,1753.0,1417.0,1689.0,1743.0,1753.0,1745.0,-170.80821228027344,6.614997386932373,45.94020462036133,Left
3708.808837890625,16035,1,1786.0,1753.0,1754.0,1453.0,1784.0,1689.0,1753.0,1747.0,-170.80821228027344,6.614997386932373,45.94020462036133,Left
3710.808837890625,16035,1,1804.0,1785.0,1755.0,1720.0,1845.0,1658.0,1756.0,1747.0,-170.80821228027344,6.614997386932373,45.94020462036133,Left
3712.808837890625,16035,1,1769.0,1779.0,1754.0,1780.0,1847.0,1651.0,1759.0,1743.0,-170.77525329589844,6.586404800415039,45.93332290649414,Left
3704.808837890625,16036,1,1818.0,1811.0,1753.0,2056.0,1877.0,1670.0,1763.0,1748.0,-170.77525329589844,6.586404800415039,45.93332290649414,Left
3706.808837890625,16036,1,1809.0,1785.0,1753.0,2037.0,1785.0,1759.0,1763.0,1742.0,-170.77525329589844,6.586404800415039,45.93332290649414,Left
3708.808837890625,16036,1,1758.0,1783.0,1753.0,1980.0,1769.0,1751.0,1763.0,1747.0,-170.77525329589844,6.586404800415039,45.93332290649414,Left
3710.808837890625,16036,1,1703.0,1743.0,1751.0,1752.0,1657.0,1839.0,1755.0,1747.0,-170.77525329589844,6.586404800415039,45.93332290649414,Left
3712.808837890625,16036,1,1691.0,1723.0,1750.0,1654.0,1619.0,1875.0,1754.0,1745.0,-170.77525329589844,6.586404800415039,45.93332290649414,Left
3704.808837890625,16037,1,1657.0,1699.0,1750.0,1555.0,1563.0,1851.0,1751.0,1747.0,-170.77525329589844,6.586404800415039,45.93332290649414,Left
3706.808837890625,16037,1,1751.0,1711.0,1743.0,1555.0,1689.0,1753.0,1755.0,1743.0,-170.77525329589844,6.586404800415039,45.93332290649414,Left
3708.808837890625,16037,1,1817.0,1765.0,1754.0,1637.0,1805.0,1682.0,1755.0,1747.0,-170.77525329589844,6.586404800415039,45.93332290649414,Left
3710.808837890625,16037,1,1799.0,1785.0,1753.0,1839.0,1853.0,1659.0,1757.0,1743.0,-170.77525329589844,6.586404800415039,45.93332290649414,Left
3712.808837890625,16037,1,1783.0,1775.0,1755.0,1927.0,1846.0,1658.0,1756.0,1747.0,-170.77525329589844,6.586404800415039,45.93332290649414,Left
3704.808837890625,16038,1,1797.0,1788.0,1752.0,2002.0,1845.0,1655.0,1763.0,1747.0,-170.77525329589844,6.586404800415039,45.93332290649414,Left
3706.808837890625,16038,1,1735.0,1762.0,1751.0,2004.0,1753.0,1748.0,1763.0,1747.0,-170.77525329589844,6.586404800415039,45.93332290649414,Left
3708.808837890625,16038,1,1772.0,1758.0,1753.0,2107.0,1747.0,1751.0,1763.0,1746.0,-170.77525329589844,6.586404800415039,45.93332290649414,Left
3710.808837890625,16038,1,1727.0,1727.0,1756.0,1865.0,1629.0,1843.0,1755.0,1743.0,-170.77525329589844,6.586404800415039,45.93332290649414,Left
3712.808837890625,16038,1,1725.0,1721.0,1755.0,1702.0,1635.0,1866.0,1750.0,1748.0,-170.77525329589844,6.586404800415039,45.93332290649414,Left
3704.808837890625,16039,1,1652.0,1735.0,1755.0,1486.0,1643.0,1862.0,1753.0,1742.0,-170.77525329589844,6.586404800415039,45.93332290649414,Left
3706.808837890625,16039,1,1740.0,1766.0,1753.0,1479.0,1757.0,1751.0,1751.0,1747.0,-170.77525329589844,6.586404800415039,45.93332290649414,Left
3708.808837890625,16039,1,1797.0,1780.0,1754.0,1661.0,1820.0,1686.0,1755.0,1747.0,-170.77525329589844,6.586404800415039,45.93332290649414,Left
3710.808837890625,16039,1,1870.0,1800.0,1755.0,1755.0,1862.0,1669.0,1757.0,1739.0,-170.77525329589844,6.586404800415039,45.93332290649414,Left
3712.808837890625,16039,1,1911.0,1792.0,1754.0,1711.0,1848.0,1659.0,1757.0,1749.0,-170.77525329589844,6.586404800415039,45.93332290649414,Left
3704.808837890625,16040,1,1876.0,1797.0,1754.0,1834.0,1811.0,1659.0,1765.0,1747.0,-170.77525329589844,6.586404800415039,45.93332290649414,Left
3706.808837890625,16040,1,1773.0,1783.0,1751.0,1837.0,1749.0,1747.0,1763.0,1749.0,-170.77525329589844,6.586404800415039,45.93332290649414,Left
3708.808837890625,16040,1,1656.0,1768.0,1752.0,1912.0,1727.0,1735.0,1762.0,1747.0,-170.77525329589844,6.586404800415039,45.93332290649414,Left
3710.808837890625,16040,1,1497.0,1705.0,1753.0,1681.0,1610.0,1816.0,1757.0,1748.0,-170.77525329589844,6.586404800415039,45.93332290649414,Left
3712.808837890625,16040,1,1635.0,1709.0,1751.0,1565.0,1619.0,1851.0,1755.0,1747.0,-170.77525329589844,6.586404800415039,45.93332290649414,Left
3704.808837890625,16041,1,1703.0,1691.0,1751.0,1405.0,1597.0,1867.0,1753.0,1747.0,-170.77525329589844,6.586404800415039,45.93332290649414,Left
3706.808837890625,16041,1,1799.0,1723.0,1751.0,1565.0,1709.0,1763.0,1753.0,1747.0,-170.77525329589844,6.586404800415039,45.93332290649414,Left
3708.808837890625,16041,1,1836.0,1759.0,1753.0,1675.0,1812.0,1703.0,1754.0,1745.0,-170.77525329589844,6.586404800415039,45.93332290649414,Left
3710.808837890625,16041,1,1818.0,1775.0,1753.0,1800.0,1868.0,1663.0,1757.0,1746.0,-170.77525329589844,6.586404800415039,45.93332290649414,Left
3712.808837890625,16041,1,1812.0,1784.0,1753.0,1865.0,1851.0,1656.0,1746.0,1747.0,-170.77525329589844,6.586404800415039,45.93332290649414,Left
3704.808837890625,16042,1,1807.0,1791.0,1754.0,2070.0,1891.0,1652.0,1765.0,1747.0,-170.77525329589844,6.586404800415039,45.93332290649414,Left
3706.808837890625,16042,1,1742.0,1784.0,1755.0,2068.0,1843.0,1722.0,1759.0,1747.0,-170.2042999267578,6.6052350997924805,46.330474853515625,Left
3708.808837890625,16042,1,1839.0,1781.0,1753.0,2093.0,1839.0,1724.0,1763.0,1747.0,-170.2042999267578,6.6052350997924805,46.330474853515625,Left
3710.808837890625,16042,1,1763.0,1727.0,1754.0,1863.0,1718.0,1837.0,1755.0,1747.0,-170.2042999267578,6.6052350997924805,46.330474853515625,Left
3712.808837890625,16042,1,1725.0,1713.0,1755.0,1736.0,1651.0,1873.0,1755.0,1747.0,-170.2042999267578,6.6052350997924805,46.330474853515625,Left
3704.808837890625,16043,1,1684.0,1679.0,1751.0,1428.0,1611.0,1896.0,1751.0,1747.0,-170.2042999267578,6.6052350997924805,46.330474853515625,Left
3706.808837890625,16043,1,1705.0,1710.0,1751.0,1467.0,1685.0,1781.0,1755.0,1743.0,-170.2042999267578,6.6052350997924805,46.330474853515625,Left
3708.808837890625,16043,1,1741.0,1735.0,1753.0,1618.0,1751.0,1694.0,1747.0,1747.0,-170.2042999267578,6.6052350997924805,46.330474853515625,Left
3710.808837890625,16043,1,1817.0,1770.0,1752.0,1775.0,1850.0,1652.0,1759.0,1743.0,-170.2042999267578,6.6052350997924805,46.330474853515625,Left
3712.808837890625,16043,1,1831.0,1801.0,1753.0,1853.0,1873.0,1651.0,1757.0,1747.0,-170.2042999267578,6.6052350997924805,46.330474853515625,Left
3752.387939453125,16044,1,1771.0,1850.0,1753.0,2043.0,1917.0,1630.0,1765.0,1746.0,-170.2042999267578,6.6052350997924805,46.330474853515625,Left
3754.387939453125,16044,1,1722.0,1773.0,1752.0,1994.0,1875.0,1691.0,1759.0,1747.0,-170.2042999267578,6.6052350997924805,46.330474853515625,Left
3756.387939453125,16044,1,1831.0,1769.0,1755.0,1981.0,1851.0,1687.0,1765.0,1747.0,-170.2042999267578,6.6052350997924805,46.330474853515625,Left
3758.387939453125,16044,1,1757.0,1673.0,1755.0,1769.0,1635.0,1804.0,1756.0,1747.0,-170.2042999267578,6.6052350997924805,46.330474853515625,Left
3760.387939453125,16044,1,1679.0,1671.0,1756.0,1747.0,1619.0,1873.0,1754.0,1747.0,-170.2042999267578,6.6052350997924805,46.330474853515625,Left
3754.405517578125,16045,1,1580.0,1671.0,1753.0,1395.0,1517.0,1915.0,1753.0,1746.0,-170.2042999267578,6.6052350997924805,46.330474853515625,Left
3756.405517578125,16045,1,1746.0,1646.0,1752.0,1524.0,1578.0,1791.0,1755.0,1748.0,-170.2042999267578,6.6052350997924805,46.330474853515625,Left
3758.405517578125,16045,1,1754.0,1715.0,1753.0,1571.0,1711.0,1683.0,1755.0,1747.0,-170.2042999267578,6.6052350997924805,46.330474853515625,Left
3760.405517578125,16045,1,1813.0,1791.0,1755.0,1816.0,1837.0,1638.0,1757.0,1747.0,-170.2042999267578,6.6052350997924805,46.330474853515625,Left
3762.405517578125,16045,1,1797.0,1791.0,1753.0,2058.0,1875.0,1625.0,1754.0,1745.0,-170.2042999267578,6.6052350997924805,46.330474853515625,Left
3754.405517578125,16046,1,1820.0,1807.0,1753.0,2362.0,1751.0,1575.0,1763.0,1747.0,-170.2042999267578,6.6052350997924805,46.330474853515625,Left
3756.405517578125,16046,1,1855.0,1821.0,1751.0,2336.0,1791.0,1640.0,1764.0,1743.0,-170.2042999267578,6.6052350997924805,46.330474853515625,Left
3758.405517578125,16046,1,1812.0,1839.0,1752.0,2380.0,1719.0,1625.0,1766.0,1746.0,-170.2042999267578,6.6052350997924805,46.330474853515625,Left
3760.405517578125,16046,1,1707.0,1801.0,1753.0,2139.0,1689.0,1867.0,1756.0,1747.0,-170.2042999267578,6.6052350997924805,46.330474853515625,Left
3762.405517578125,16046,1,1702.0,1765.0,1753.0,1871.0,1645.0,1989.0,1753.0,1747.0,-170.2042999267578,6.6052350997924805,46.330474853515625,Left
3754.405517578125,16047,1,1598.0,1717.0,1755.0,1399.0,1508.0,2183.0,1752.0,1747.0,-170.2042999267578,6.6052350997924805,46.330474853515625,Left
3756.405517578125,16047,1,1702.0,1719.0,1752.0,1307.0,1661.0,2041.0,1754.0,1745.0,-170.2042999267578,6.6052350997924805,46.330474853515625,Left
3758.405517578125,16047,1,1815.0,1765.0,1756.0,1353.0,1839.0,1817.0,1753.0,1748.0,-170.2042999267578,6.6052350997924805,46.330474853515625,Left
3760.405517578125,16047,1,1913.0,1814.0,1753.0,1623.0,1972.0,1607.0,1755.0,1748.0,-170.2042999267578,6.6052350997924805,46.330474853515625,Left
3762.405517578125,16047,1,1885.0,1837.0,1753.0,1884.0,1992.0,1545.0,1753.0,1746.0,-170.2042999267578,6.6052350997924805,46.330474853515625,Left
3754.405517578125,16048,1,1738.0,1845.0,1753.0,2281.0,2068.0,1305.0,1764.0,1745.0,-170.2042999267578,6.6052350997924805,46.330474853515625,Left
3756.405517578125,16048,1,1797.0,1851.0,1753.0,2472.0,1967.0,1379.0,1767.0,1747.0,-170.2042999267578,6.6052350997924805,46.330474853515625,Left
3758.405517578125,16048,1,1783.0,1869.0,1752.0,2525.0,1907.0,1359.0,1769.0,1747.0,-170.2042999267578,6.6052350997924805,46.330474853515625,Left
3760.405517578125,16048,1,1767.0,1756.0,1754.0,2201.0,1685.0,1893.0,1766.0,1748.0,-167.63624572753906,6.634089469909668,48.99492645263672,Left
3762.405517578125,16048,1,1701.0,1707.0,1758.0,1897.0,1529.0,2147.0,1757.0,1741.0,-167.63624572753906,6.634089469909668,48.99492645263672,Left
3770.904296875,16049,1,1499.0,1631.0,1755.0,1112.0,1301.0,2669.0,1751.0,1748.0,-167.63624572753906,6.634089469909668,48.99492645263672,Left
3772.904296875,16049,1,1655.0,1660.0,1752.0,877.0,1379.0,2480.0,1752.0,1747.0,-167.63624572753906,6.634089469909668,48.99492645263672,Left
3774.904296875,16049,1,1747.0,1733.0,1753.0,998.0,1566.0,2101.0,1751.0,1749.0,-167.63624572753906,6.634089469909668,48.99492645263672,Left
3776.904296875,16049,1,1843.0,1816.0,1756.0,1373.0,1811.0,1651.0,1754.0,1747.0,-167.63624572753906,6.634089469909668,48.99492645263672,Left
3778.904296875,16049,1,1837.0,1843.0,1754.0,1650.0,1902.0,1422.0,1753.0,1749.0,-167.63624572753906,6.634089469909668,48.99492645263672,Left
3770.904296875,16050,1,1903.0,1897.0,1749.0,2232.0,2087.0,954.0,1756.0,1745.0,-167.63624572753906,6.634089469909668,48.99492645263672,Left
3772.904296875,16050,1,1951.0,1907.0,1753.0,2570.0,2104.0,956.0,1765.0,1748.0,-167.63624572753906,6.634089469909668,48.99492645263672,Left
3774.904296875,16050,1,1929.0,1895.0,1758.0,2872.0,2094.0,877.0,1775.0,1749.0,-167.63624572753906,6.634089469909668,48.99492645263672,Left
3776.904296875,16050,1,1661.0,1785.0,1754.0,2510.0,1791.0,1646.0,1770.0,1746.0,-167.63624572753906,6.634089469909668,48.99492645263672,Left
3778.904296875,16050,1,1561.0,1717.0,1751.0,2018.0,1607.0,2111.0,1757.0,1749.0,-167.63624572753906,6.634089469909668,48.99492645263672,Left
3770.904296875,16051,1,1511.0,1629.0,1753.0,1019.0,1293.0,2992.0,1748.0,1747.0,-167.63624572753906,6.634089469909668,48.99492645263672,Left
3772.904296875,16051,1,1560.0,1626.0,1751.0,531.0,1319.0,2806.0,1749.0,1747.0,-167.63624572753906,6.634089469909668,48.99492645263672,Left
3774.904296875,16051,1,1679.0,1660.0,1755.0,555.0,1483.0,2319.0,1751.0,1749.0,-167.63624572753906,6.634089469909668,48.99492645263672,Left
3776.904296875,16051,1,1784.0,1700.0,1755.0,995.0,1708.0,1703.0,1752.0,1747.0,-167.63624572753906,6.634089469909668,48.99492645263672,Left
3778.904296875,16051,1,1835.0,1748.0,1753.0,1304.0,1848.0,1349.0,1752.0,1745.0,-167.63624572753906,6.634089469909668,48.99492645263672,Left
3787.8330078125,16052,1,1949.0,1836.0,1753.0,2073.0,2079.0,735.0,1755.0,1743.0,-167.63624572753906,6.634089469909668,48.99492645263672,Left
3789.8330078125,16052,1,1930.0,1863.0,1753.0,2459.0,2109.0,782.0,1767.0,1748.0,-167.63624572753906,6.634089469909668,48.99492645263672,Left
3791.8330078125,16052,1,1935.0,1869.0,1754.0,2734.0,2121.0,726.0,1779.0,1743.0,-167.63624572753906,6.634089469909668,48.99492645263672,Left
3793.8330078125,16052,1,1788.0,1773.0,1755.0,2441.0,1828.0,1583.0,1771.0,1747.0,-167.63624572753906,6.634089469909668,48.99492645263672,Left
3795.8330078125,16052,1,1656.0,1708.0,1753.0,2029.0,1609.0,2164.0,1758.0,1747.0,-167.63624572753906,6.634089469909668,48.99492645263672,Left
3804.9501953125,16053,1,1486.0,1623.0,1746.0,1135.0,1285.0,3251.0,1743.0,1747.0,-167.63624572753906,6.634089469909668,48.99492645263672,Left
3806.9501953125,16053,1,1557.0,1615.0,1753.0,764.0,1319.0,3000.0,1749.0,1747.0,-167.63624572753906,6.634089469909668,48.99492645263672,Left
3808.9501953125,16053,1,1651.0,1651.0,1753.0,850.0,1477.0,2408.0,1752.0,1747.0,-167.63624572753906,6.634089469909668,48.99492645263672,Left
3810.9501953125,16053,1,1750.0,1748.0,1752.0,1263.0,1733.0,1663.0,1752.0,1743.0,-167.63624572753906,6.634089469909668,48.99492645263672,Left
3812.9501953125,16053,1,1789.0,1800.0,1752.0,1619.0,1885.0,1349.0,1753.0,1747.0,-167.63624572753906,6.634089469909668,48.99492645263672,Left
3804.9501953125,16054,1,1955.0,1847.0,1753.0,2265.0,2087.0,651.0,1755.0,1746.0,-167.63624572753906,6.634089469909668,48.99492645263672,Left
3806.9501953125,16054,1,1908.0,1843.0,1751.0,2587.0,2085.0,0.0,1767.0,1742.0,-167.63624572753906,6.634089469909668,48.99492645263672,Left
3808.9501953125,16054,1,1774.0,1839.0,1755.0,2835.0,2060.0,0.0,1779.0,1747.0,-167.63624572753906,6.634089469909668,48.99492645263672,Left
3810.9501953125,16054,1,1607.0,1791.0,1755.0,2553.0,1799.0,2684.0,1769.0,1749.0,-167.63624572753906,6.634089469909668,48.99492645263672,Left
3812.9501953125,16054,1,1609.0,1757.0,1753.0,2117.0,1575.0,3773.0,1763.0,1746.0,-167.63624572753906,6.634089469909668,48.99492645263672,Left
3826.857421875,16055,1,1647.0,1661.0,1747.0,1323.0,1323.0,3783.0,1746.0,1747.0,-167.63624572753906,6.634089469909668,48.99492645263672,Left
3828.857421875,16055,1,1427.0,1641.0,1753.0,975.0,1363.0,3775.0,1745.0,1746.0,-167.63624572753906,6.634089469909668,48.99492645263672,Left
3830.857421875,16055,1,2041.0,1693.0,1753.0,936.0,1529.0,3787.0,1749.0,1747.0,-149.47305297851562,2.9531707763671875,55.119956970214844,Left
3832.857421875,16055,1,1688.0,1762.0,1752.0,1092.0,1745.0,0.0,1751.0,1747.0,-149.47305297851562,2.9531707763671875,55.119956970214844,Left
3834.857421875,16055,1,2005.0,1803.0,1753.0,1446.0,1820.0,0.0,1753.0,1747.0,-149.47305297851562,2.9531707763671875,55.119956970214844,Left
3842.320068359375,16056,1,1919.0,1875.0,1764.0,2133.0,2040.0,0.0,1757.0,1745.0,-149.47305297851562,2.9531707763671875,55.119956970214844,Left
3844.320068359375,16056,1,1956.0,1897.0,1757.0,2461.0,2035.0,0.0,1772.0,1747.0,-149.47305297851562,2.9531707763671875,55.119956970214844,Left
3846.320068359375,16056,1,1871.0,1901.0,1757.0,2717.0,2063.0,0.0,1781.0,1749.0,-149.47305297851562,2.9531707763671875,55.119956970214844,Left
3848.320068359375,16056,1,1692.0,1797.0,1753.0,2375.0,1800.0,0.0,1771.0,1749.0,-149.47305297851562,2.9531707763671875,55.119956970214844,Left
3850.320068359375,16056,1,1589.0,1707.0,1753.0,1973.0,1630.0,3774.0,1759.0,1747.0,-149.47305297851562,2.9531707763671875,55.119956970214844,Left
3842.320068359375,16057,1,1433.0,1613.0,1754.0,1277.0,1299.0,3775.0,1742.0,1742.0,-149.47305297851562,2.9531707763671875,55.119956970214844,Left
3844.320068359375,16057,1,1496.0,1633.0,1750.0,907.0,1333.0,3784.0,1743.0,1741.0,-149.47305297851562,2.9531707763671875,55.119956970214844,Left
3846.320068359375,16057,1,1605.0,1647.0,1756.0,895.0,1449.0,3775.0,1747.0,1746.0,-149.47305297851562,2.9531707763671875,55.119956970214844,Left
3848.320068359375,16057,1,1722.0,1717.0,1753.0,1068.0,1639.0,0.0,1752.0,1746.0,-149.47305297851562,2.9531707763671875,55.119956970214844,Left
3850.320068359375,16057,1,1651.0,1759.0,1753.0,1421.0,1829.0,0.0,1751.0,1747.0,-149.47305297851562,2.9531707763671875,55.119956970214844,Left
3849.72705078125,16058,1,1733.0,1828.0,1756.0,2111.0,2052.0,0.0,1765.0,1739.0,-149.47305297851562,2.9531707763671875,55.119956970214844,Left
3851.72705078125,16058,1,1708.0,1850.0,1755.0,2403.0,2101.0,0.0,1772.0,1747.0,-149.47305297851562,2.9531707763671875,55.119956970214844,Left
3853.72705078125,16058,1,1719.0,1877.0,1752.0,2597.0,2132.0,0.0,1781.0,1745.0,-149.47305297851562,2.9531707763671875,55.119956970214844,Left
3855.72705078125,16058,1,1741.0,1799.0,1757.0,2299.0,1917.0,3782.0,1772.0,1749.0,-149.47305297851562,2.9531707763671875,55.119956970214844,Left
3857.72705078125,16058,1,1772.0,1723.0,1753.0,1895.0,1773.0,3774.0,1763.0,1747.0,-149.47305297851562,2.9531707763671875,55.119956970214844,Left
3864.39990234375,16059,1,1757.0,1619.0,1750.0,1084.0,1544.0,3783.0,1741.0,1747.0,-149.47305297851562,2.9531707763671875,55.119956970214844,Left
3866.39990234375,16059,1,1807.0,1613.0,1752.0,797.0,1548.0,3788.0,1741.0,1743.0,-149.47305297851562,2.9531707763671875,55.119956970214844,Left
3868.39990234375,16059,1,1848.0,1627.0,1751.0,875.0,1611.0,2639.0,1749.0,1746.0,-149.47305297851562,2.9531707763671875,55.119956970214844,Left
3870.39990234375,16059,1,1867.0,1683.0,1752.0,1192.0,1765.0,0.0,1747.0,1748.0,-149.47305297851562,2.9531707763671875,55.119956970214844,Left
3872.39990234375,16059,1,1877.0,1715.0,1751.0,1511.0,1849.0,0.0,1749.0,1748.0,-149.47305297851562,2.9531707763671875,55.119956970214844,Left
4029.112060546875,16060,1,1895.0,1784.0,1761.0,2089.0,2053.0,0.0,1749.0,1739.0,-149.47305297851562,2.9531707763671875,55.119956970214844,Left
4031.112060546875,16060,1,1899.0,1819.0,1756.0,2392.0,2018.0,0.0,1768.0,1748.0,-149.47305297851562,2.9531707763671875,55.119956970214844,Left
4033.112060546875,16060,1,1863.0,1855.0,1755.0,2524.0,1983.0,0.0,1775.0,1741.0,-149.47305297851562,2.9531707763671875,55.119956970214844,Left
4035.112060546875,16060,1,1747.0,1812.0,1755.0,2141.0,1699.0,3785.0,1769.0,1746.0,-149.47305297851562,2.9531707763671875,55.119956970214844,Left
4037.112060546875,16060,1,1741.0,1771.0,1751.0,1779.0,1541.0,3773.0,1759.0,1747.0,-149.47305297851562,2.9531707763671875,55.119956970214844,Left
4039.422607421875,16061,1,1687.0,1691.0,1753.0,1015.0,1273.0,3775.0,1745.0,1747.0,-149.47305297851562,2.9531707763671875,55.119956970214844,Left
4041.422607421875,16061,1,1709.0,1704.0,1754.0,631.0,1369.0,3788.0,1749.0,1747.0,-149.47305297851562,2.9531707763671875,55.119956970214844,Left
4043.422607421875,16061,1,1779.0,1791.0,1752.0,755.0,1524.0,1177.0,1749.0,1745.0,-149.47305297851562,2.9531707763671875,55.119956970214844,Left
4045.422607421875,16061,1,1798.0,1853.0,1755.0,1109.0,1719.0,0.0,1751.0,1747.0,-129.1781005859375,-3.677185535430908,61.414337158203125,Left
4047.422607421875,16061,1,1823.0,1864.0,1752.0,1382.0,1891.0,0.0,1752.0,1746.0,-129.1781005859375,-3.677185535430908,61.414337158203125,Left
4039.422607421875,16062,1,1781.0,1874.0,1755.0,2055.0,2040.0,0.0,1753.0,1742.0,-129.1781005859375,-3.677185535430908,61.414337158203125,Left
4041.422607421875,16062,1,1765.0,1912.0,1755.0,2331.0,2156.0,116.0,1769.0,1742.0,-129.1781005859375,-3.677185535430908,61.414337158203125,Left
4043.422607421875,16062,1,1753.0,1873.0,1753.0,2515.0,2390.0,0.0,1773.0,1747.0,-129.1781005859375,-3.677185535430908,61.414337158203125,Left
4045.422607421875,16062,1,1722.0,1706.0,1753.0,2295.0,1983.0,3785.0,1766.0,1749.0,-129.1781005859375,-3.677185535430908,61.414337158203125,Left
4047.422607421875,16062,1,1779.0,1658.0,1755.0,2027.0,1751.0,3783.0,1755.0,1743.0,-129.1781005859375,-3.677185535430908,61.414337158203125,Left
4041.193603515625,16063,1,1806.0,1561.0,1752.0,1207.0,1407.0,3783.0,1749.0,1746.0,-129.1781005859375,-3.677185535430908,61.414337158203125,Left
4043.193603515625,16063,1,1835.0,1579.0,1752.0,1070.0,1404.0,3791.0,1749.0,1748.0,-129.1781005859375,-3.677185535430908,61.414337158203125,Left
4045.193603515625,16063,1,1787.0,1609.0,1752.0,1093.0,1541.0,1223.0,1753.0,1747.0,-129.1781005859375,-3.677185535430908,61.414337158203125,Left
4047.193603515625,16063,1,1791.0,1675.0,1753.0,1405.0,1753.0,0.0,1753.0,1748.0,-129.1781005859375,-3.677185535430908,61.414337158203125,Left
4049.193603515625,16063,1,1751.0,1708.0,1755.0,1656.0,1823.0,0.0,1755.0,1747.0,-129.1781005859375,-3.677185535430908,61.414337158203125,Left
4041.193603515625,16064,1,1691.0,1739.0,1753.0,2175.0,1943.0,0.0,1753.0,1745.0,-129.1781005859375,-3.677185535430908,61.414337158203125,Left
4043.193603515625,16064,1,1661.0,1767.0,1753.0,2453.0,1941.0,0.0,1763.0,1743.0,-129.1781005859375,-3.677185535430908,61.414337158203125,Left
4045.193603515625,16064,1,1691.0,1779.0,1755.0,2633.0,1954.0,0.0,1774.0,1747.0,-129.1781005859375,-3.677185535430908,61.414337158203125,Left
4047.193603515625,16064,1,1717.0,1749.0,1755.0,2300.0,1749.0,3795.0,1769.0,1749.0,-129.1781005859375,-3.677185535430908,61.414337158203125,Left
4049.193603515625,16064,1,1768.0,1761.0,1753.0,2061.0,1597.0,3781.0,1754.0,1747.0,-129.1781005859375,-3.677185535430908,61.414337158203125,Left
4041.193603515625,16065,1,1836.0,1738.0,1753.0,1368.0,1365.0,3784.0,1750.0,1747.0,-129.1781005859375,-3.677185535430908,61.414337158203125,Left
4043.193603515625,16065,1,1875.0,1743.0,1755.0,1095.0,1415.0,3787.0,1746.0,1746.0,-129.1781005859375,-3.677185535430908,61.414337158203125,Left
4045.193603515625,16065,1,1845.0,1775.0,1755.0,1103.0,1548.0,3795.0,1751.0,1743.0,-129.1781005859375,-3.677185535430908,61.414337158203125,Left
4047.193603515625,16065,1,1783.0,1781.0,1751.0,1238.0,1717.0,888.0,1755.0,1747.0,-129.1781005859375,-3.677185535430908,61.414337158203125,Left
4049.193603515625,16065,1,1775.0,1824.0,1752.0,1540.0,1839.0,72.0,1753.0,1741.0,-129.1781005859375,-3.677185535430908,61.414337158203125,Left
4041.193603515625,16066,1,1695.0,1818.0,1753.0,2028.0,1951.0,0.0,1755.0,1747.0,-129.1781005859375,-3.677185535430908,61.414337158203125,Left
4043.193603515625,16066,1,1675.0,1822.0,1755.0,2284.0,1964.0,357.0,1765.0,1749.0,-129.1781005859375,-3.677185535430908,61.414337158203125,Left
4045.193603515625,16066,1,1679.0,1817.0,1753.0,2475.0,1949.0,175.0,1771.0,1747.0,-129.1781005859375,-3.677185535430908,61.414337158203125,Left
4047.193603515625,16066,1,1679.0,1763.0,1753.0,2182.0,1757.0,3789.0,1765.0,1745.0,-129.1781005859375,-3.677185535430908,61.414337158203125,Left
4049.193603515625,16066,1,1740.0,1711.0,1753.0,1879.0,1639.0,3794.0,1756.0,1748.0,-129.1781005859375,-3.677185535430908,61.414337158203125,Left
4041.193603515625,16067,1,1832.0,1673.0,1752.0,1275.0,1439.0,3789.0,1751.0,1749.0,-129.1781005859375,-3.677185535430908,61.414337158203125,Left
4043.193603515625,16067,1,1864.0,1683.0,1755.0,1117.0,1463.0,2851.0,1752.0,1749.0,-129.1781005859375,-3.677185535430908,61.414337158203125,Left
4045.193603515625,16067,1,1871.0,1721.0,1753.0,1077.0,1617.0,1957.0,1759.0,1749.0,-129.1781005859375,-3.677185535430908,61.414337158203125,Left
4047.193603515625,16067,1,1769.0,1725.0,1753.0,1399.0,1759.0,1350.0,1753.0,1746.0,-129.1781005859375,-3.677185535430908,61.414337158203125,Left
4049.193603515625,16067,1,1661.0,1735.0,1753.0,1653.0,1810.0,1111.0,1753.0,1747.0,-129.1781005859375,-3.677185535430908,61.414337158203125,Left
4041.193603515625,16068,1,1717.0,1774.0,1747.0,2024.0,1971.0,601.0,1755.0,1749.0,-129.1781005859375,-3.677185535430908,61.414337158203125,Left
4043.193603515625,16068,1,1657.0,1816.0,1753.0,2299.0,1961.0,923.0,1755.0,1747.0,-120.14961242675781,-11.018990516662598,66.5810317993164,Left
4045.193603515625,16068,1,1659.0,1829.0,1754.0,2443.0,1956.0,949.0,1773.0,1748.0,-120.14961242675781,-11.018990516662598,66.5810317993164,Left
4047.193603515625,16068,1,1707.0,1805.0,1752.0,2199.0,1779.0,1643.0,1767.0,1747.0,-120.14961242675781,-11.018990516662598,66.5810317993164,Left
4049.193603515625,16068,1,1751.0,1786.0,1755.0,1963.0,1652.0,2079.0,1756.0,1747.0,-120.14961242675781,-11.018990516662598,66.5810317993164,Left
4041.193603515625,16069,1,1865.0,1767.0,1753.0,1365.0,1489.0,2873.0,1751.0,1746.0,-120.14961242675781,-11.018990516662598,66.5810317993164,Left
4043.193603515625,16069,1,1852.0,1747.0,1755.0,1117.0,1485.0,2415.0,1753.0,1747.0,-120.14961242675781,-11.018990516662598,66.5810317993164,Left
4045.193603515625,16069,1,1835.0,1756.0,1755.0,1205.0,1595.0,1783.0,1752.0,1748.0,-120.14961242675781,-11.018990516662598,66.5810317993164,Left
4047.193603515625,16069,1,1783.0,1829.0,1753.0,1572.0,1773.0,1435.0,1755.0,1746.0,-120.14961242675781,-11.018990516662598,66.5810317993164,Left
4049.193603515625,16069,1,1747.0,1831.0,1753.0,1871.0,1848.0,1395.0,1754.0,1747.0,-120.14961242675781,-11.018990516662598,66.5810317993164,Left
4041.193603515625,16070,1,1713.0,1833.0,1755.0,2331.0,1959.0,1070.0,1755.0,1747.0,-120.14961242675781,-11.018990516662598,66.5810317993164,Left
4043.193603515625,16070,1,1654.0,1833.0,1755.0,2521.0,1963.0,1165.0,1765.0,1749.0,-120.14961242675781,-11.018990516662598,66.5810317993164,Left
4045.193603515625,16070,1,1677.0,1829.0,1753.0,2628.0,1951.0,1132.0,1772.0,1748.0,-120.14961242675781,-11.018990516662598,66.5810317993164,Left
4047.193603515625,16070,1,1685.0,1783.0,1753.0,2378.0,1769.0,1913.0,1767.0,1747.0,-120.14961242675781,-11.018990516662598,66.5810317993164,Left
4049.193603515625,16070,1,1753.0,1761.0,1753.0,2168.0,1660.0,2071.0,1757.0,1747.0,-120.14961242675781,-11.018990516662598,66.5810317993164,Left
4041.193603515625,16071,1,1821.0,1725.0,1749.0,1459.0,1491.0,2521.0,1751.0,1749.0,-120.14961242675781,-11.018990516662598,66.5810317993164,Left
4043.193603515625,16071,1,1899.0,1726.0,1753.0,1239.0,1517.0,2300.0,1752.0,1747.0,-120.14961242675781,-11.018990516662598,66.5810317993164,Left
4045.193603515625,16071,1,1829.0,1737.0,1754.0,1238.0,1623.0,1993.0,1753.0,1747.0,-120.14961242675781,-11.018990516662598,66.5810317993164,Left
4047.193603515625,16071,1,1865.0,1799.0,1753.0,1553.0,1821.0,1610.0,1756.0,1747.0,-120.14961242675781,-11.018990516662598,66.5810317993164,Left
4049.193603515625,16071,1,1688.0,1779.0,1755.0,1843.0,1805.0,1387.0,1752.0,1749.0,-120.14961242675781,-11.018990516662598,66.5810317993164,Left
4041.193603515625,16072,1,1664.0,1769.0,1755.0,2233.0,1938.0,1005.0,1755.0,1748.0,-120.14961242675781,-11.018990516662598,66.5810317993164,Left
4043.193603515625,16072,1,1629.0,1781.0,1752.0,2399.0,1938.0,1163.0,1763.0,1748.0,-120.14961242675781,-11.018990516662598,66.5810317993164,Left
4045.193603515625,16072,1,1673.0,1819.0,1754.0,2471.0,1973.0,1101.0,1769.0,1746.0,-120.14961242675781,-11.018990516662598,66.5810317993164,Left
4047.193603515625,16072,1,1695.0,1751.0,1755.0,2165.0,1779.0,1567.0,1765.0,1747.0,-120.14961242675781,-11.018990516662598,66.5810317993164,Left
4049.193603515625,16072,1,1742.0,1739.0,1755.0,1869.0,1661.0,1849.0,1757.0,1747.0,-120.14961242675781,-11.018990516662598,66.5810317993164,Left
4041.193603515625,16073,1,1839.0,1711.0,1752.0,1161.0,1477.0,2248.0,1751.0,1745.0,-120.14961242675781,-11.018990516662598,66.5810317993164,Left
4043.193603515625,16073,1,1851.0,1692.0,1754.0,892.0,1464.0,2035.0,1752.0,1747.0,-120.14961242675781,-11.018990516662598,66.5810317993164,Left
4045.193603515625,16073,1,1851.0,1745.0,1756.0,1047.0,1611.0,1696.0,1755.0,1747.0,-120.14961242675781,-11.018990516662598,66.5810317993164,Left
4047.193603515625,16073,1,1805.0,1787.0,1753.0,1406.0,1771.0,1701.0,1753.0,1747.0,-120.14961242675781,-11.018990516662598,66.5810317993164,Left
4049.193603515625,16073,1,1764.0,1800.0,1752.0,1530.0,1829.0,1389.0,1756.0,1746.0,-120.14961242675781,-11.018990516662598,66.5810317993164,Left
4041.193603515625,16074,1,1683.0,1803.0,1755.0,1967.0,1929.0,1227.0,1756.0,1749.0,-120.14961242675781,-11.018990516662598,66.5810317993164,Left
4043.193603515625,16074,1,1671.0,1804.0,1753.0,2173.0,1929.0,1605.0,1765.0,1749.0,-120.14961242675781,-11.018990516662598,66.5810317993164,Left
4045.193603515625,16074,1,1627.0,1768.0,1754.0,2395.0,1863.0,1422.0,1771.0,1748.0,-120.14961242675781,-11.018990516662598,66.5810317993164,Left
4047.193603515625,16074,1,1693.0,1763.0,1755.0,2173.0,1754.0,2183.0,1763.0,1748.0,-117.886962890625,-13.72315502166748,71.50133514404297,Left
4049.193603515625,16074,1,1722.0,1719.0,1751.0,1902.0,1621.0,2549.0,1757.0,1747.0,-117.886962890625,-13.72315502166748,71.50133514404297,Left
4041.193603515625,16075,1,1823.0,1692.0,1753.0,1453.0,1470.0,2777.0,1751.0,1747.0,-117.886962890625,-13.72315502166748,71.50133514404297,Left
4043.193603515625,16075,1,1835.0,1693.0,1753.0,1145.0,1517.0,2361.0,1750.0,1749.0,-117.886962890625,-13.72315502166748,71.50133514404297,Left
4045.193603515625,16075,1,1896.0,1749.0,1755.0,1261.0,1669.0,1991.0,1753.0,1747.0,-117.886962890625,-13.72315502166748,71.50133514404297,Left
4047.193603515625,16075,1,1805.0,1755.0,1755.0,1481.0,1800.0,1590.0,1753.0,1747.0,-117.886962890625,-13.72315502166748,71.50133514404297,Left
4049.193603515625,16075,1,1733.0,1771.0,1753.0,1671.0,1848.0,1491.0,1755.0,1746.0,-117.886962890625,-13.72315502166748,71.50133514404297,Left
4041.193603515625,16076,1,1663.0,1787.0,1753.0,2056.0,1959.0,1073.0,1755.0,1747.0,-117.886962890625,-13.72315502166748,71.50133514404297,Left
4043.193603515625,16076,1,1647.0,1805.0,1752.0,2188.0,1977.0,1242.0,1766.0,1749.0,-117.886962890625,-13.72315502166748,71.50133514404297,Left
4045.193603515625,16076,1,1625.0,1771.0,1755.0,2267.0,1919.0,1386.0,1771.0,1747.0,-117.886962890625,-13.72315502166748,71.50133514404297,Left
4047.193603515625,16076,1,1685.0,1781.0,1753.0,2083.0,1781.0,1956.0,1764.0,1746.0,-117.886962890625,-13.72315502166748,71.50133514404297,Left
4049.193603515625,16076,1,1721.0,1708.0,1752.0,1855.0,1645.0,2072.0,1763.0,1747.0,-117.886962890625,-13.72315502166748,71.50133514404297,Left
4041.193603515625,16077,1,1847.0,1715.0,1749.0,1295.0,1527.0,2445.0,1751.0,1749.0,-117.886962890625,-13.72315502166748,71.50133514404297,Left
4043.193603515625,16077,1,1904.0,1719.0,1752.0,1135.0,1551.0,2134.0,1751.0,1749.0,-117.886962890625,-13.72315502166748,71.50133514404297,Left
4045.193603515625,16077,1,1868.0,1727.0,1752.0,1199.0,1671.0,1837.0,1753.0,1747.0,-117.886962890625,-13.72315502166748,71.50133514404297,Left
4047.193603515625,16077,1,1837.0,1763.0,1751.0,1455.0,1802.0,1596.0,1753.0,1747.0,-117.886962890625,-13.72315502166748,71.50133514404297,Left
4049.193603515625,16077,1,1727.0,1758.0,1754.0,1629.0,1821.0,1404.0,1755.0,1749.0,-117.886962890625,-13.72315502166748,71.50133514404297,Left
4058.92431640625,16078,1,1652.0,1790.0,1753.0,2056.0,1943.0,1101.0,1756.0,1747.0,-117.886962890625,-13.72315502166748,71.50133514404297,Left
4060.92431640625,16078,1,1646.0,1813.0,1753.0,2327.0,1927.0,1289.0,1765.0,1747.0,-117.886962890625,-13.72315502166748,71.50133514404297,Left
4062.92431640625,16078,1,1645.0,1804.0,1755.0,2311.0,1911.0,1432.0,1769.0,1748.0,-117.886962890625,-13.72315502166748,71.50133514404297,Left
4064.92431640625,16078,1,1719.0,1768.0,1755.0,2171.0,1765.0,1643.0,1763.0,1747.0,-117.886962890625,-13.72315502166748,71.50133514404297,Left
4066.92431640625,16078,1,1751.0,1721.0,1755.0,1959.0,1683.0,1971.0,1757.0,1747.0,-117.886962890625,-13.72315502166748,71.50133514404297,Left
4058.92431640625,16079,1,1883.0,1700.0,1754.0,1391.0,1498.0,2430.0,1751.0,1747.0,-117.886962890625,-13.72315502166748,71.50133514404297,Left
4060.92431640625,16079,1,1878.0,1705.0,1753.0,1177.0,1519.0,2247.0,1752.0,1747.0,-117.886962890625,-13.72315502166748,71.50133514404297,Left
4062.92431640625,16079,1,1891.0,1753.0,1755.0,1414.0,1687.0,2132.0,1753.0,1743.0,-117.886962890625,-13.72315502166748,71.50133514404297,Left
4064.92431640625,16079,1,1774.0,1768.0,1753.0,1560.0,1781.0,1766.0,1753.0,1747.0,-117.886962890625,-13.72315502166748,71.50133514404297,Left
4066.92431640625,16079,1,1719.0,1789.0,1755.0,1617.0,1837.0,1688.0,1755.0,1745.0,-117.886962890625,-13.72315502166748,71.50133514404297,Left
4073.878173828125,16080,1,1657.0,1803.0,1752.0,1981.0,1949.0,1419.0,1757.0,1742.0,-117.886962890625,-13.72315502166748,71.50133514404297,Left
4075.878173828125,16080,1,1581.0,1807.0,1765.0,2310.0,1931.0,1517.0,1767.0,1747.0,-117.886962890625,-13.72315502166748,71.50133514404297,Left
4077.878173828125,16080,1,1597.0,1811.0,1752.0,2403.0,1927.0,1373.0,1770.0,1745.0,-117.886962890625,-13.72315502166748,71.50133514404297,Left
4079.878173828125,16080,1,1685.0,1779.0,1753.0,2075.0,1756.0,1711.0,1767.0,1747.0,-117.886962890625,-13.72315502166748,71.50133514404297,Left
4081.878173828125,16080,1,1775.0,1775.0,1755.0,1811.0,1685.0,1835.0,1759.0,1748.0,-117.886962890625,-13.72315502166748,71.50133514404297,Left
4073.878173828125,16081,1,1957.0,1707.0,1754.0,1391.0,1528.0,2183.0,1751.0,1747.0,-117.55892181396484,-13.052048683166504,78.11784362792969,Left
4075.878173828125,16081,1,1957.0,1671.0,1755.0,1183.0,1491.0,1895.0,1751.0,1747.0,-117.55892181396484,-13.052048683166504,78.11784362792969,Left
4077.878173828125,16081,1,1909.0,1737.0,1755.0,1161.0,1689.0,1651.0,1755.0,1749.0,-117.55892181396484,-13.052048683166504,78.11784362792969,Left
4079.878173828125,16081,1,1810.0,1780.0,1754.0,1413.0,1813.0,1468.0,1756.0,1743.0,-117.55892181396484,-13.052048683166504,78.11784362792969,Left
4081.878173828125,16081,1,1694.0,1769.0,1754.0,1764.0,1819.0,1287.0,1757.0,1749.0,-117.55892181396484,-13.052048683166504,78.11784362792969,Left
4090.7138671875,16082,1,1510.0,1782.0,1753.0,2093.0,1908.0,741.0,1757.0,1748.0,-117.55892181396484,-13.052048683166504,78.11784362792969,Left
4092.7138671875,16082,1,1517.0,1797.0,1755.0,2183.0,1941.0,0.0,1765.0,1747.0,-117.55892181396484,-13.052048683166504,78.11784362792969,Left
4094.7138671875,16082,1,1618.0,1763.0,1756.0,2268.0,1943.0,0.0,1770.0,1748.0,-117.55892181396484,-13.052048683166504,78.11784362792969,Left
4096.7138671875,16082,1,1711.0,1750.0,1757.0,2015.0,1839.0,0.0,1767.0,1750.0,-117.55892181396484,-13.052048683166504,78.11784362792969,Left
4098.7138671875,16082,1,1787.0,1757.0,1755.0,1806.0,1670.0,0.0,1762.0,1743.0,-117.55892181396484,-13.052048683166504,78.11784362792969,Left
4120.8828125,16083,1,1927.0,1735.0,1740.0,1275.0,1408.0,2569.0,1751.0,1747.0,-117.55892181396484,-13.052048683166504,78.11784362792969,Left
4122.8828125,16083,1,1993.0,1707.0,1753.0,1135.0,1469.0,3784.0,1752.0,1747.0,-117.55892181396484,-13.052048683166504,78.11784362792969,Left
4124.8828125,16083,1,1864.0,1726.0,1754.0,1183.0,1591.0,3783.0,1755.0,1748.0,-117.55892181396484,-13.052048683166504,78.11784362792969,Left
4126.8828125,16083,1,1755.0,1756.0,1751.0,1479.0,1753.0,3789.0,1768.0,1746.0,-117.55892181396484,-13.052048683166504,78.11784362792969,Left
4128.8828125,16083,1,1671.0,1781.0,1755.0,1727.0,1817.0,3801.0,1753.0,1749.0,-117.55892181396484,-13.052048683166504,78.11784362792969,Left
4120.8828125,16084,1,1607.0,1871.0,1753.0,2045.0,1981.0,2365.0,1756.0,1749.0,-117.55892181396484,-13.052048683166504,78.11784362792969,Left
4122.8828125,16084,1,1593.0,1850.0,1755.0,2219.0,1975.0,1911.0,1765.0,1748.0,-117.55892181396484,-13.052048683166504,78.11784362792969,Left
4124.8828125,16084,1,1589.0,1844.0,1753.0,2285.0,1955.0,1579.0,1767.0,1743.0,-117.55892181396484,-13.052048683166504,78.11784362792969,Left
4126.8828125,16084,1,1671.0,1768.0,1748.0,2067.0,1733.0,1802.0,1764.0,1743.0,-117.55892181396484,-13.052048683166504,78.11784362792969,Left
4128.8828125,16084,1,1745.0,1748.0,1753.0,1957.0,1637.0,1956.0,1757.0,1747.0,-117.55892181396484,-13.052048683166504,78.11784362792969,Left
4136.80615234375,16085,1,2039.0,1703.0,1751.0,1556.0,1479.0,2469.0,1751.0,1747.0,-117.55892181396484,-13.052048683166504,78.11784362792969,Left
4138.80615234375,16085,1,2029.0,1719.0,1753.0,1307.0,1491.0,1829.0,1755.0,1747.0,-117.55892181396484,-13.052048683166504,78.11784362792969,Left
4140.80615234375,16085,1,1930.0,1702.0,1751.0,1423.0,1620.0,1595.0,1755.0,1747.0,-117.55892181396484,-13.052048683166504,78.11784362792969,Left
4142.80615234375,16085,1,1813.0,1747.0,1752.0,1595.0,1737.0,1294.0,1755.0,1747.0,-117.55892181396484,-13.052048683166504,78.11784362792969,Left
4144.80615234375,16085,1,1699.0,1765.0,1754.0,1703.0,1805.0,1191.0,1755.0,1747.0,-117.55892181396484,-13.052048683166504,78.11784362792969,Left
4139.0947265625,16086,1,1609.0,1813.0,1755.0,2125.0,1973.0,1215.0,1753.0,1749.0,-117.55892181396484,-13.052048683166504,78.11784362792969,Left
4141.0947265625,16086,1,1503.0,1811.0,1754.0,2349.0,1993.0,1285.0,1761.0,1747.0,-117.55892181396484,-13.052048683166504,78.11784362792969,Left
4143.0947265625,16086,1,1497.0,1781.0,1755.0,2413.0,2035.0,1210.0,1769.0,1747.0,-117.55892181396484,-13.052048683166504,78.11784362792969,Left
4145.0947265625,16086,1,1641.0,1741.0,1754.0,2267.0,1883.0,1781.0,1765.0,1748.0,-117.55892181396484,-13.052048683166504,78.11784362792969,Left
4147.0947265625,16086,1,1820.0,1717.0,1754.0,2019.0,1699.0,1853.0,1759.0,1749.0,-117.55892181396484,-13.052048683166504,78.11784362792969,Left
4139.0947265625,16087,1,1997.0,1683.0,1753.0,1463.0,1395.0,2070.0,1749.0,1747.0,-117.55892181396484,-13.052048683166504,78.11784362792969,Left
4141.0947265625,16087,1,2137.0,1724.0,1755.0,1240.0,1494.0,2019.0,1753.0,1747.0,-117.55892181396484,-13.052048683166504,78.11784362792969,Left
4143.0947265625,16087,1,1957.0,1723.0,1751.0,1335.0,1669.0,1656.0,1754.0,1745.0,-117.55892181396484,-13.052048683166504,78.11784362792969,Left
4145.0947265625,16087,1,1785.0,1787.0,1755.0,1459.0,1811.0,1271.0,1755.0,1748.0,-114.43704986572266,-12.10715103149414,83.67918395996094,Left
4147.0947265625,16087,1,1657.0,1770.0,1753.0,1603.0,1849.0,1003.0,1755.0,1747.0,-114.43704986572266,-12.10715103149414,83.67918395996094,Left
4153.27099609375,16088,1,1591.0,1778.0,1749.0,1947.0,1977.0,1041.0,1756.0,1747.0,-114.43704986572266,-12.10715103149414,83.67918395996094,Left
4155.27099609375,16088,1,1509.0,1783.0,1753.0,2171.0,1951.0,989.0,1767.0,1742.0,-114.43704986572266,-12.10715103149414,83.67918395996094,Left
4157.27099609375,16088,1,1446.0,1734.0,1754.0,2295.0,1885.0,1095.0,1769.0,1747.0,-114.43704986572266,-12.10715103149414,83.67918395996094,Left
4159.27099609375,16088,1,1627.0,1737.0,1753.0,2181.0,1704.0,1869.0,1771.0,1747.0,-114.43704986572266,-12.10715103149414,83.67918395996094,Left
4161.27099609375,16088,1,1863.0,1737.0,1753.0,1971.0,1720.0,2685.0,1763.0,1747.0,-114.43704986572266,-12.10715103149414,83.67918395996094,Left
4187.4150390625,16089,1,2163.0,1687.0,1751.0,1415.0,1512.0,3275.0,1751.0,1747.0,-114.43704986572266,-12.10715103149414,83.67918395996094,Left
4189.4150390625,16089,1,2134.0,1683.0,1753.0,1165.0,1462.0,2889.0,1753.0,1747.0,-114.43704986572266,-12.10715103149414,83.67918395996094,Left
4191.4150390625,16089,1,1980.0,1742.0,1751.0,1287.0,1636.0,2299.0,1753.0,1749.0,-114.43704986572266,-12.10715103149414,83.67918395996094,Left
4193.4150390625,16089,1,1800.0,1791.0,1752.0,1471.0,1741.0,1780.0,1753.0,1747.0,-114.43704986572266,-12.10715103149414,83.67918395996094,Left
4195.4150390625,16089,1,1627.0,1769.0,1751.0,1593.0,1783.0,1575.0,1754.0,1747.0,-114.43704986572266,-12.10715103149414,83.67918395996094,Left
4187.4150390625,16090,1,1464.0,1789.0,1746.0,1911.0,1947.0,1327.0,1753.0,1747.0,-114.43704986572266,-12.10715103149414,83.67918395996094,Left
4189.4150390625,16090,1,1421.0,1812.0,1753.0,2067.0,1967.0,1366.0,1763.0,1746.0,-114.43704986572266,-12.10715103149414,83.67918395996094,Left
4191.4150390625,16090,1,1471.0,1806.0,1755.0,2139.0,1955.0,1597.0,1769.0,1748.0,-114.43704986572266,-12.10715103149414,83.67918395996094,Left
4193.4150390625,16090,1,1628.0,1758.0,1754.0,1963.0,1764.0,1641.0,1763.0,1749.0,-114.43704986572266,-12.10715103149414,83.67918395996094,Left
4195.4150390625,16090,1,1791.0,1741.0,1753.0,1707.0,1663.0,2127.0,1757.0,1747.0,-114.43704986572266,-12.10715103149414,83.67918395996094,Left
4187.4150390625,16091,1,2022.0,1691.0,1755.0,1299.0,1435.0,2155.0,1751.0,1747.0,-114.43704986572266,-12.10715103149414,83.67918395996094,Left
4189.4150390625,16091,1,2092.0,1703.0,1759.0,1160.0,1485.0,1962.0,1753.0,1746.0,-114.43704986572266,-12.10715103149414,83.67918395996094,Left
4191.4150390625,16091,1,2053.0,1749.0,1753.0,1287.0,1635.0,1494.0,1753.0,1746.0,-114.43704986572266,-12.10715103149414,83.67918395996094,Left
4193.4150390625,16091,1,1800.0,1737.0,1758.0,1515.0,1790.0,1467.0,1764.0,1747.0,-114.43704986572266,-12.10715103149414,83.67918395996094,Left
4195.4150390625,16091,1,1711.0,1763.0,1753.0,1662.0,1831.0,1480.0,1754.0,1746.0,-114.43704986572266,-12.10715103149414,83.67918395996094,Left
4195.943359375,16092,1,1459.0,1763.0,1750.0,1993.0,1913.0,1477.0,1755.0,1749.0,-114.43704986572266,-12.10715103149414,83.67918395996094,Left
4197.943359375,16092,1,1503.0,1791.0,1754.0,2083.0,1959.0,1516.0,1759.0,1743.0,-114.43704986572266,-12.10715103149414,83.67918395996094,Left
4199.943359375,16092,1,1445.0,1717.0,1754.0,2309.0,1847.0,1543.0,1769.0,1749.0,-114.43704986572266,-12.10715103149414,83.67918395996094,Left
4201.943359375,16092,1,1693.0,1757.0,1754.0,2263.0,1770.0,1836.0,1767.0,1749.0,-114.43704986572266,-12.10715103149414,83.67918395996094,Left
4203.943359375,16092,1,1799.0,1701.0,1753.0,1965.0,1620.0,1723.0,1759.0,1743.0,-114.43704986572266,-12.10715103149414,83.67918395996094,Left
4219.9423828125,16093,1,2077.0,1738.0,1754.0,1451.0,1485.0,2021.0,1753.0,1747.0,-114.43704986572266,-12.10715103149414,83.67918395996094,Left
4221.9423828125,16093,1,2153.0,1721.0,1754.0,1212.0,1507.0,1929.0,1752.0,1747.0,-114.43704986572266,-12.10715103149414,83.67918395996094,Left
4223.9423828125,16093,1,1968.0,1723.0,1752.0,1315.0,1615.0,1769.0,1753.0,1748.0,-114.43704986572266,-12.10715103149414,83.67918395996094,Left
4225.9423828125,16093,1,1803.0,1753.0,1755.0,1595.0,1753.0,1433.0,1753.0,1746.0,-114.43704986572266,-12.10715103149414,83.67918395996094,Left
4227.9423828125,16093,1,1672.0,1813.0,1756.0,1831.0,1865.0,1565.0,1755.0,1745.0,-114.43704986572266,-12.10715103149414,83.67918395996094,Left
4235.73974609375,16094,1,1479.0,1779.0,1755.0,2013.0,1919.0,1634.0,1756.0,1749.0,-114.43704986572266,-12.10715103149414,83.67918395996094,Left
4237.73974609375,16094,1,1480.0,1783.0,1755.0,2315.0,1945.0,1725.0,1763.0,1749.0,-112.36823272705078,-11.518095016479492,87.51910400390625,Left
4239.73974609375,16094,1,1459.0,1762.0,1751.0,2409.0,1885.0,1679.0,1770.0,1746.0,-112.36823272705078,-11.518095016479492,87.51910400390625,Left
4241.73974609375,16094,1,1653.0,1757.0,1755.0,2264.0,1723.0,1949.0,1769.0,1749.0,-112.36823272705078,-11.518095016479492,87.51910400390625,Left
4243.73974609375,16094,1,1783.0,1755.0,1752.0,1931.0,1627.0,1933.0,1757.0,1746.0,-112.36823272705078,-11.518095016479492,87.51910400390625,Left
4235.73974609375,16095,1,2136.0,1712.0,1753.0,1481.0,1519.0,2059.0,1751.0,1747.0,-112.36823272705078,-11.518095016479492,87.51910400390625,Left
4237.73974609375,16095,1,2171.0,1727.0,1752.0,1255.0,1530.0,1907.0,1752.0,1748.0,-112.36823272705078,-11.518095016479492,87.51910400390625,Left
4239.73974609375,16095,1,1971.0,1773.0,1753.0,1278.0,1685.0,1745.0,1753.0,1748.0,-112.36823272705078,-11.518095016479492,87.51910400390625,Left
4241.73974609375,16095,1,1790.0,1787.0,1752.0,1484.0,1806.0,1599.0,1751.0,1747.0,-112.36823272705078,-11.518095016479492,87.51910400390625,Left
4243.73974609375,16095,1,1661.0,1767.0,1754.0,1512.0,1753.0,1629.0,1757.0,1742.0,-112.36823272705078,-11.518095016479492,87.51910400390625,Left
4235.73974609375,16096,1,1480.0,1772.0,1752.0,1963.0,1837.0,1593.0,1752.0,1747.0,-112.36823272705078,-11.518095016479492,87.51910400390625,Left
4237.73974609375,16096,1,1455.0,1755.0,1753.0,2163.0,1912.0,1497.0,1765.0,1747.0,-112.36823272705078,-11.518095016479492,87.51910400390625,Left
4239.73974609375,16096,1,1415.0,1789.0,1753.0,2311.0,1903.0,1559.0,1771.0,1746.0,-112.36823272705078,-11.518095016479492,87.51910400390625,Left
4241.73974609375,16096,1,1626.0,1751.0,1755.0,2237.0,1784.0,1845.0,1767.0,1736.0,-112.36823272705078,-11.518095016479492,87.51910400390625,Left
4243.73974609375,16096,1,1828.0,1777.0,1753.0,1974.0,1721.0,1871.0,1759.0,1748.0,-112.36823272705078,-11.518095016479492,87.51910400390625,Left
4245.62646484375,16097,1,2084.0,1723.0,1755.0,1419.0,1545.0,2035.0,1749.0,1748.0,-112.36823272705078,-11.518095016479492,87.51910400390625,Left
4247.62646484375,16097,1,2152.0,1711.0,1755.0,1148.0,1547.0,1927.0,1751.0,1747.0,-112.36823272705078,-11.518095016479492,87.51910400390625,Left
4249.62646484375,16097,1,2085.0,1764.0,1753.0,1260.0,1700.0,1891.0,1750.0,1747.0,-112.36823272705078,-11.518095016479492,87.51910400390625,Left
4251.62646484375,16097,1,1801.0,1788.0,1753.0,1445.0,1818.0,1688.0,1743.0,1745.0,-112.36823272705078,-11.518095016479492,87.51910400390625,Left
4253.62646484375,16097,1,1652.0,1746.0,1752.0,1609.0,1811.0,1599.0,1753.0,1747.0,-112.36823272705078,-11.518095016479492,87.51910400390625,Left
4252.3994140625,16098,1,1524.0,1797.0,1751.0,1955.0,1948.0,1383.0,1755.0,1748.0,-112.36823272705078,-11.518095016479492,87.51910400390625,Left
4254.3994140625,16098,1,1401.0,1768.0,1753.0,2158.0,1907.0,1726.0,1765.0,1749.0,-112.36823272705078,-11.518095016479492,87.51910400390625,Left
4256.3994140625,16098,1,1426.0,1805.0,1750.0,2365.0,1917.0,1707.0,1771.0,1747.0,-112.36823272705078,-11.518095016479492,87.51910400390625,Left
4258.3994140625,16098,1,1627.0,1736.0,1755.0,2159.0,1747.0,1756.0,1765.0,1749.0,-112.36823272705078,-11.518095016479492,87.51910400390625,Left
4260.3994140625,16098,1,1831.0,1747.0,1751.0,1916.0,1671.0,1773.0,1763.0,1747.0,-112.36823272705078,-11.518095016479492,87.51910400390625,Left
4268.14404296875,16099,1,2076.0,1701.0,1752.0,1486.0,1494.0,2014.0,1740.0,1738.0,-112.36823272705078,-11.518095016479492,87.51910400390625,Left
4270.14404296875,16099,1,2133.0,1721.0,1753.0,1194.0,1541.0,1897.0,1750.0,1742.0,-112.36823272705078,-11.518095016479492,87.51910400390625,Left
4272.14404296875,16099,1,2009.0,1757.0,1757.0,1259.0,1641.0,1685.0,1753.0,1749.0,-112.36823272705078,-11.518095016479492,87.51910400390625,Left
4274.14404296875,16099,1,1763.0,1749.0,1753.0,1479.0,1765.0,1579.0,1753.0,1746.0,-112.36823272705078,-11.518095016479492,87.51910400390625,Left
4276.14404296875,16099,1,1752.0,1801.0,1756.0,1561.0,1836.0,1717.0,1753.0,1747.0,-112.36823272705078,-11.518095016479492,87.51910400390625,Left
4637.96484375,16100,1,1533.0,1767.0,1754.0,1996.0,1943.0,1637.0,1757.0,1747.0,-112.36823272705078,-11.518095016479492,87.51910400390625,Left
4639.96484375,16100,1,1403.0,1831.0,1759.0,2233.0,1915.0,1885.0,1765.0,1743.0,-112.36823272705078,-11.518095016479492,87.51910400390625,Left
4641.96484375,16100,1,1468.0,1789.0,1753.0,2271.0,1880.0,1927.0,1771.0,1747.0,-112.36823272705078,-11.518095016479492,87.51910400390625,Left
4643.96484375,16100,1,1593.0,1767.0,1753.0,2124.0,1749.0,1640.0,1764.0,1748.0,-112.0906753540039,-10.984186172485352,89.46955108642578,Left
4645.96484375,16100,1,1819.0,1727.0,1753.0,1772.0,1656.0,1741.0,1764.0,1747.0,-112.0906753540039,-10.984186172485352,89.46955108642578,Left
4637.96484375,16101,1,2109.0,1721.0,1743.0,1428.0,1543.0,1843.0,1752.0,1741.0,-112.0906753540039,-10.984186172485352,89.46955108642578,Left
4639.96484375,16101,1,2217.0,1737.0,1753.0,1226.0,1575.0,1780.0,1751.0,1748.0,-112.0906753540039,-10.984186172485352,89.46955108642578,Left
4641.96484375,16101,1,1975.0,1743.0,1755.0,1274.0,1621.0,1686.0,1754.0,1747.0,-112.0906753540039,-10.984186172485352,89.46955108642578,Left
4643.96484375,16101,1,1789.0,1748.0,1755.0,1464.0,1749.0,1699.0,1755.0,1748.0,-112.0906753540039,-10.984186172485352,89.46955108642578,Left
4645.96484375,16101,1,1673.0,1783.0,1752.0,1641.0,1813.0,1744.0,1755.0,1747.0,-112.0906753540039,-10.984186172485352,89.46955108642578,Left
4637.96484375,16102,1,1480.0,1784.0,1753.0,2063.0,1917.0,1727.0,1755.0,1747.0,-112.0906753540039,-10.984186172485352,89.46955108642578,Left
4639.96484375,16102,1,1435.0,1805.0,1752.0,2292.0,1948.0,1653.0,1765.0,1749.0,-112.0906753540039,-10.984186172485352,89.46955108642578,Left
4641.96484375,16102,1,1501.0,1773.0,1753.0,2361.0,1919.0,1645.0,1762.0,1741.0,-112.0906753540039,-10.984186172485352,89.46955108642578,Left
4643.96484375,16102,1,1660.0,1771.0,1753.0,2186.0,1790.0,1831.0,1763.0,1749.0,-112.0906753540039,-10.984186172485352,89.46955108642578,Left
4645.96484375,16102,1,1801.0,1725.0,1752.0,1884.0,1659.0,1861.0,1763.0,1748.0,-112.0906753540039,-10.984186172485352,89.46955108642578,Left
4637.96484375,16103,1,2087.0,1736.0,1753.0,1427.0,1545.0,1912.0,1748.0,1747.0,-112.0906753540039,-10.984186172485352,89.46955108642578,Left
4639.96484375,16103,1,2139.0,1709.0,1753.0,1177.0,1523.0,1791.0,1747.0,1747.0,-112.0906753540039,-10.984186172485352,89.46955108642578,Left
4641.96484375,16103,1,2031.0,1725.0,1755.0,1321.0,1639.0,1751.0,1752.0,1747.0,-112.0906753540039,-10.984186172485352,89.46955108642578,Left
4643.96484375,16103,1,1763.0,1767.0,1753.0,1500.0,1742.0,1749.0,1755.0,1752.0,-112.0906753540039,-10.984186172485352,89.46955108642578,Left
4645.96484375,16103,1,1651.0,1751.0,1753.0,1691.0,1839.0,1939.0,1752.0,1747.0,-112.0906753540039,-10.984186172485352,89.46955108642578,Left
4637.96484375,16104,1,1558.0,1823.0,1755.0,2031.0,1908.0,1500.0,1755.0,1743.0,-112.0906753540039,-10.984186172485352,89.46955108642578,Left
4639.96484375,16104,1,1391.0,1740.0,1755.0,2107.0,1919.0,1491.0,1765.0,1753.0,-112.0906753540039,-10.984186172485352,89.46955108642578,Left
4641.96484375,16104,1,1467.0,1771.0,1755.0,2236.0,1919.0,1572.0,1771.0,1745.0,-112.0906753540039,-10.984186172485352,89.46955108642578,Left
4643.96484375,16104,1,1625.0,1773.0,1755.0,2132.0,1791.0,1685.0,1765.0,1747.0,-112.0906753540039,-10.984186172485352,89.46955108642578,Left
4645.96484375,16104,1,1834.0,1739.0,1755.0,1869.0,1692.0,1767.0,1763.0,1749.0,-112.0906753540039,-10.984186172485352,89.46955108642578,Left
4637.96484375,16105,1,2074.0,1691.0,1755.0,1341.0,1505.0,1861.0,1749.0,1747.0,-112.0906753540039,-10.984186172485352,89.46955108642578,Left
4639.96484375,16105,1,2163.0,1726.0,1754.0,1141.0,1529.0,1931.0,1751.0,1748.0,-112.0906753540039,-10.984186172485352,89.46955108642578,Left
4641.96484375,16105,1,1992.0,1763.0,1754.0,1250.0,1629.0,1871.0,1753.0,1747.0,-112.0906753540039,-10.984186172485352,89.46955108642578,Left
4643.96484375,16105,1,1799.0,1781.0,1755.0,1511.0,1747.0,1659.0,1752.0,1747.0,-112.0906753540039,-10.984186172485352,89.46955108642578,Left
4645.96484375,16105,1,1653.0,1742.0,1755.0,1657.0,1783.0,1556.0,1756.0,1749.0,-112.0906753540039,-10.984186172485352,89.46955108642578,Left
4637.96484375,16106,1,1484.0,1804.0,1754.0,2020.0,1929.0,1765.0,1755.0,1747.0,-112.0906753540039,-10.984186172485352,89.46955108642578,Left
4639.96484375,16106,1,1446.0,1773.0,1754.0,2230.0,1958.0,1675.0,1765.0,1747.0,-112.0906753540039,-10.984186172485352,89.46955108642578,Left
4641.96484375,16106,1,1510.0,1781.0,1755.0,2314.0,1915.0,1639.0,1769.0,1747.0,-112.0906753540039,-10.984186172485352,89.46955108642578,Left
4643.96484375,16106,1,1604.0,1771.0,1754.0,2221.0,1787.0,1849.0,1767.0,1747.0,-112.0906753540039,-10.984186172485352,89.46955108642578,Left
4645.96484375,16106,1,1848.0,1759.0,1753.0,2105.0,1708.0,1791.0,1763.0,1747.0,-112.0906753540039,-10.984186172485352,89.46955108642578,Left
4637.96484375,16107,1,2053.0,1703.0,1753.0,1571.0,1515.0,1911.0,1749.0,1747.0,-112.0906753540039,-10.984186172485352,89.46955108642578,Left
4639.96484375,16107,1,2162.0,1737.0,1747.0,1309.0,1531.0,1912.0,1751.0,1746.0,-112.06452941894531,-10.580463409423828,90.72688293457031,Left
4641.96484375,16107,1,1944.0,1720.0,1752.0,1323.0,1609.0,1549.0,1751.0,1748.0,-112.06452941894531,-10.580463409423828,90.72688293457031,Left
4643.96484375,16107,1,1803.0,1765.0,1753.0,1519.0,1755.0,1727.0,1754.0,1748.0,-112.06452941894531,-10.580463409423828,90.72688293457031,Left
4645.96484375,16107,1,1707.0,1792.0,1753.0,1679.0,1843.0,1785.0,1755.0,1742.0,-112.06452941894531,-10.580463409423828,90.72688293457031,Left
4637.96484375,16108,1,1464.0,1749.0,1753.0,1981.0,1871.0,1673.0,1754.0,1745.0,-112.06452941894531,-10.580463409423828,90.72688293457031,Left
4639.96484375,16108,1,1419.0,1774.0,1751.0,2150.0,1943.0,1544.0,1765.0,1747.0,-112.06452941894531,-10.580463409423828,90.72688293457031,Left
4641.96484375,16108,1,1545.0,1781.0,1752.0,2175.0,1899.0,1671.0,1759.0,1743.0,-112.06452941894531,-10.580463409423828,90.72688293457031,Left
4643.96484375,16108,1,1751.0,1807.0,1749.0,2135.0,1833.0,1823.0,1765.0,1746.0,-112.06452941894531,-10.580463409423828,90.72688293457031,Left
4645.96484375,16108,1,1759.0,1738.0,1753.0,1912.0,1660.0,1876.0,1757.0,1746.0,-112.06452941894531,-10.580463409423828,90.72688293457031,Left
4637.96484375,16109,1,1928.0,1710.0,1765.0,1467.0,1511.0,1974.0,1747.0,1743.0,-112.06452941894531,-10.580463409423828,90.72688293457031,Left
4639.96484375,16109,1,1945.0,1703.0,1755.0,1195.0,1483.0,1699.0,1749.0,1747.0,-112.06452941894531,-10.580463409423828,90.72688293457031,Left
4641.96484375,16109,1,1855.0,1723.0,1755.0,1142.0,1619.0,1725.0,1749.0,1747.0,-112.06452941894531,-10.580463409423828,90.72688293457031,Left
4643.96484375,16109,1,1788.0,1739.0,1752.0,1389.0,1733.0,1506.0,1753.0,1745.0,-112.06452941894531,-10.580463409423828,90.72688293457031,Left
4645.96484375,16109,1,1780.0,1767.0,1755.0,1548.0,1827.0,1707.0,1755.0,1745.0,-112.06452941894531,-10.580463409423828,90.72688293457031,Left
4637.96484375,16110,1,1667.0,1805.0,1754.0,2012.0,1947.0,1775.0,1755.0,1748.0,-112.06452941894531,-10.580463409423828,90.72688293457031,Left
4639.96484375,16110,1,1463.0,1775.0,1754.0,2185.0,1873.0,1784.0,1763.0,1747.0,-112.06452941894531,-10.580463409423828,90.72688293457031,Left
4641.96484375,16110,1,1511.0,1821.0,1753.0,2267.0,1941.0,1938.0,1769.0,1747.0,-112.06452941894531,-10.580463409423828,90.72688293457031,Left
4643.96484375,16110,1,1612.0,1765.0,1753.0,2089.0,1765.0,1863.0,1766.0,1747.0,-112.06452941894531,-10.580463409423828,90.72688293457031,Left
4645.96484375,16110,1,1935.0,1721.0,1756.0,1845.0,1693.0,1721.0,1759.0,1747.0,-112.06452941894531,-10.580463409423828,90.72688293457031,Left
4637.96484375,16111,1,2151.0,1725.0,1751.0,1407.0,1571.0,1659.0,1751.0,1743.0,-112.06452941894531,-10.580463409423828,90.72688293457031,Left
4639.96484375,16111,1,2239.0,1742.0,1753.0,1191.0,1581.0,1671.0,1751.0,1749.0,-112.06452941894531,-10.580463409423828,90.72688293457031,Left
4641.96484375,16111,1,1973.0,1741.0,1753.0,1303.0,1674.0,1691.0,1749.0,1745.0,-112.06452941894531,-10.580463409423828,90.72688293457031,Left
4643.96484375,16111,1,1723.0,1757.0,1754.0,1455.0,1693.0,1779.0,1753.0,1747.0,-112.06452941894531,-10.580463409423828,90.72688293457031,Left
4645.96484375,16111,1,1635.0,1781.0,1753.0,1623.0,1797.0,1799.0,1753.0,1747.0,-112.06452941894531,-10.580463409423828,90.72688293457031,Left
4637.96484375,16112,1,1336.0,1769.0,1755.0,1972.0,1874.0,1797.0,1753.0,1747.0,-112.06452941894531,-10.580463409423828,90.72688293457031,Left
4639.96484375,16112,1,1277.0,1723.0,1754.0,2157.0,1868.0,1821.0,1766.0,1747.0,-112.06452941894531,-10.580463409423828,90.72688293457031,Left
4641.96484375,16112,1,1541.0,1769.0,1754.0,2184.0,1912.0,1618.0,1773.0,1747.0,-112.06452941894531,-10.580463409423828,90.72688293457031,Left
4643.96484375,16112,1,1789.0,1816.0,1751.0,2057.0,1849.0,1637.0,1767.0,1749.0,-112.06452941894531,-10.580463409423828,90.72688293457031,Left
4645.96484375,16112,1,1829.0,1771.0,1755.0,1817.0,1689.0,1657.0,1764.0,1747.0,-112.06452941894531,-10.580463409423828,90.72688293457031,Left
4637.96484375,16113,1,1974.0,1720.0,1755.0,1331.0,1527.0,1767.0,1749.0,1747.0,-112.06452941894531,-10.580463409423828,90.72688293457031,Left
4639.96484375,16113,1,2187.0,1686.0,1753.0,1060.0,1505.0,1573.0,1752.0,1747.0,-112.06452941894531,-10.580463409423828,90.72688293457031,Left
4641.96484375,16113,1,2172.0,1736.0,1755.0,1172.0,1683.0,1631.0,1751.0,1743.0,-112.06452941894531,-10.580463409423828,90.72688293457031,Left
4643.96484375,16113,1,1939.0,1751.0,1750.0,1515.0,1740.0,1689.0,1749.0,1749.0,-111.82946014404297,-10.308753967285156,91.85005950927734,Left
4645.96484375,16113,1,1721.0,1771.0,1755.0,1738.0,1847.0,1700.0,1753.0,1747.0,-111.82946014404297,-10.308753967285156,91.85005950927734,Left
4637.96484375,16114,1,1430.0,1799.0,1755.0,2063.0,1919.0,1819.0,1755.0,1747.0,-111.82946014404297,-10.308753967285156,91.85005950927734,Left
4639.96484375,16114,1,1142.0,1759.0,1753.0,2215.0,1877.0,1901.0,1771.0,1745.0,-111.82946014404297,-10.308753967285156,91.85005950927734,Left
4641.96484375,16114,1,1583.0,1816.0,1755.0,2319.0,1959.0,1797.0,1767.0,1747.0,-111.82946014404297,-10.308753967285156,91.85005950927734,Left
4643.96484375,16114,1,1747.0,1801.0,1753.0,2249.0,1803.0,2057.0,1767.0,1748.0,-111.82946014404297,-10.308753967285156,91.85005950927734,Left
4645.96484375,16114,1,1735.0,1753.0,1753.0,1973.0,1663.0,1778.0,1763.0,1747.0,-111.82946014404297,-10.308753967285156,91.85005950927734,Left
4653.85986328125,16115,1,1939.0,1654.0,1753.0,1501.0,1436.0,1785.0,1751.0,1747.0,-111.82946014404297,-10.308753967285156,91.85005950927734,Left
4655.85986328125,16115,1,1911.0,1679.0,1755.0,1375.0,1451.0,1507.0,1749.0,1746.0,-111.82946014404297,-10.308753967285156,91.85005950927734,Left
4657.85986328125,16115,1,2021.0,1741.0,1755.0,1181.0,1660.0,1390.0,1749.0,1745.0,-111.82946014404297,-10.308753967285156,91.85005950927734,Left
4659.85986328125,16115,1,1934.0,1799.0,1752.0,1389.0,1789.0,1787.0,1753.0,1747.0,-111.82946014404297,-10.308753967285156,91.85005950927734,Left
4661.85986328125,16115,1,1773.0,1801.0,1755.0,1433.0,1839.0,1967.0,1752.0,1747.0,-111.82946014404297,-10.308753967285156,91.85005950927734,Left
4653.85986328125,16116,1,1596.0,1781.0,1755.0,1833.0,1933.0,1803.0,1755.0,1746.0,-111.82946014404297,-10.308753967285156,91.85005950927734,Left
4655.85986328125,16116,1,1563.0,1767.0,1753.0,2125.0,1941.0,1727.0,1765.0,1747.0,-111.82946014404297,-10.308753967285156,91.85005950927734,Left
4657.85986328125,16116,1,1610.0,1838.0,1755.0,2265.0,1945.0,1801.0,1770.0,1747.0,-111.82946014404297,-10.308753967285156,91.85005950927734,Left
4659.85986328125,16116,1,1554.0,1773.0,1752.0,2193.0,1770.0,1789.0,1766.0,1741.0,-111.82946014404297,-10.308753967285156,91.85005950927734,Left
4661.85986328125,16116,1,1725.0,1739.0,1755.0,1995.0,1689.0,1773.0,1765.0,1745.0,-111.82946014404297,-10.308753967285156,91.85005950927734,Left
4656.4677734375,16117,1,2091.0,1737.0,1755.0,1557.0,1563.0,1755.0,1749.0,1747.0,-111.82946014404297,-10.308753967285156,91.85005950927734,Left
4658.4677734375,16117,1,2273.0,1755.0,1755.0,1262.0,1542.0,1661.0,1755.0,1749.0,-111.82946014404297,-10.308753967285156,91.85005950927734,Left
4660.4677734375,16117,1,1909.0,1723.0,1753.0,1277.0,1581.0,1597.0,1752.0,1748.0,-111.82946014404297,-10.308753967285156,91.85005950927734,Left
4662.4677734375,16117,1,1752.0,1715.0,1755.0,1429.0,1707.0,1784.0,1740.0,1741.0,-111.82946014404297,-10.308753967285156,91.85005950927734,Left
4664.4677734375,16117,1,1769.0,1774.0,1749.0,1551.0,1817.0,1880.0,1755.0,1747.0,-111.82946014404297,-10.308753967285156,91.85005950927734,Left
4656.4677734375,16118,1,1490.0,1799.0,1753.0,1983.0,1949.0,1836.0,1754.0,1747.0,-111.82946014404297,-10.308753967285156,91.85005950927734,Left
4658.4677734375,16118,1,1387.0,1781.0,1751.0,2215.0,1911.0,1671.0,1763.0,1748.0,-111.82946014404297,-10.308753967285156,91.85005950927734,Left
4660.4677734375,16118,1,1503.0,1800.0,1753.0,2239.0,1933.0,1739.0,1771.0,1741.0,-111.82946014404297,-10.308753967285156,91.85005950927734,Left
4662.4677734375,16118,1,1641.0,1763.0,1754.0,2165.0,1788.0,1864.0,1763.0,1747.0,-111.82946014404297,-10.308753967285156,91.85005950927734,Left
4664.4677734375,16118,1,1813.0,1743.0,1753.0,1935.0,1690.0,1805.0,1757.0,1747.0,-111.82946014404297,-10.308753967285156,91.85005950927734,Left
4657.84033203125,16119,1,2123.0,1733.0,1753.0,1555.0,1558.0,1765.0,1751.0,1748.0,-111.82946014404297,-10.308753967285156,91.85005950927734,Left
4659.84033203125,16119,1,2215.0,1745.0,1754.0,1351.0,1547.0,1668.0,1748.0,1747.0,-111.82946014404297,-10.308753967285156,91.85005950927734,Left
4661.84033203125,16119,1,2036.0,1733.0,1753.0,1399.0,1591.0,1583.0,1737.0,1749.0,-111.82946014404297,-10.308753967285156,91.85005950927734,Left
4663.84033203125,16119,1,1755.0,1757.0,1753.0,1406.0,1745.0,1499.0,1752.0,1745.0,-111.82946014404297,-10.308753967285156,91.85005950927734,Left
4665.84033203125,16119,1,1583.0,1769.0,1753.0,1635.0,1787.0,1515.0,1755.0,1749.0,-111.82946014404297,-10.308753967285156,91.85005950927734,Left
4657.84033203125,16120,1,1465.0,1769.0,1743.0,1956.0,1903.0,1670.0,1755.0,1749.0,-111.82946014404297,-10.308753967285156,91.85005950927734,Left
4659.84033203125,16120,1,1465.0,1784.0,1754.0,2155.0,1944.0,1966.0,1767.0,1748.0,-112.65038299560547,-9.864809036254883,92.39559173583984,Left
4661.84033203125,16120,1,1437.0,1783.0,1751.0,2237.0,1913.0,2013.0,1770.0,1749.0,-112.65038299560547,-9.864809036254883,92.39559173583984,Left
4663.84033203125,16120,1,1615.0,1785.0,1755.0,2109.0,1831.0,2095.0,1765.0,1747.0,-112.65038299560547,-9.864809036254883,92.39559173583984,Left
4665.84033203125,16120,1,1879.0,1785.0,1753.0,1895.0,1741.0,1915.0,1764.0,1747.0,-112.65038299560547,-9.864809036254883,92.39559173583984,Left
4657.84033203125,16121,1,2111.0,1689.0,1754.0,1437.0,1512.0,1555.0,1751.0,1743.0,-112.65038299560547,-9.864809036254883,92.39559173583984,Left
4659.84033203125,16121,1,2139.0,1726.0,1753.0,1222.0,1490.0,1445.0,1751.0,1747.0,-112.65038299560547,-9.864809036254883,92.39559173583984,Left
4661.84033203125,16121,1,1943.0,1715.0,1753.0,1299.0,1575.0,1547.0,1753.0,1746.0,-112.65038299560547,-9.864809036254883,92.39559173583984,Left
4663.84033203125,16121,1,1837.0,1765.0,1754.0,1387.0,1749.0,1543.0,1752.0,1747.0,-112.65038299560547,-9.864809036254883,92.39559173583984,Left
4665.84033203125,16121,1,1763.0,1773.0,1753.0,1607.0,1849.0,1779.0,1755.0,1740.0,-112.65038299560547,-9.864809036254883,92.39559173583984,Left
4659.8544921875,16122,1,1561.0,1785.0,1754.0,1907.0,1949.0,1798.0,1755.0,1747.0,-112.65038299560547,-9.864809036254883,92.39559173583984,Left
4661.8544921875,16122,1,1423.0,1789.0,1755.0,2133.0,1957.0,1951.0,1763.0,1749.0,-112.65038299560547,-9.864809036254883,92.39559173583984,Left
4663.8544921875,16122,1,1496.0,1813.0,1755.0,2145.0,1907.0,2035.0,1767.0,1742.0,-112.65038299560547,-9.864809036254883,92.39559173583984,Left
4665.8544921875,16122,1,1461.0,1751.0,1755.0,2087.0,1751.0,2023.0,1765.0,1747.0,-112.65038299560547,-9.864809036254883,92.39559173583984,Left
4667.8544921875,16122,1,1620.0,1706.0,1752.0,1945.0,1635.0,1804.0,1764.0,1747.0,-112.65038299560547,-9.864809036254883,92.39559173583984,Left
4659.8544921875,16123,1,2157.0,1721.0,1753.0,1443.0,1533.0,1651.0,1749.0,1747.0,-112.65038299560547,-9.864809036254883,92.39559173583984,Left
4661.8544921875,16123,1,2215.0,1753.0,1753.0,1109.0,1525.0,1465.0,1751.0,1747.0,-112.65038299560547,-9.864809036254883,92.39559173583984,Left
4663.8544921875,16123,1,2087.0,1717.0,1751.0,1127.0,1613.0,1453.0,1751.0,1747.0,-112.65038299560547,-9.864809036254883,92.39559173583984,Left
4665.8544921875,16123,1,1811.0,1767.0,1747.0,1353.0,1767.0,1593.0,1755.0,1745.0,-112.65038299560547,-9.864809036254883,92.39559173583984,Left
4667.8544921875,16123,1,1703.0,1749.0,1755.0,1594.0,1805.0,1651.0,1755.0,1749.0,-112.65038299560547,-9.864809036254883,92.39559173583984,Left
4659.8544921875,16124,1,1508.0,1787.0,1754.0,1847.0,1932.0,1812.0,1753.0,1746.0,-112.65038299560547,-9.864809036254883,92.39559173583984,Left
4661.8544921875,16124,1,1445.0,1785.0,1755.0,2023.0,1959.0,1909.0,1765.0,1749.0,-112.65038299560547,-9.864809036254883,92.39559173583984,Left
4663.8544921875,16124,1,1527.0,1789.0,1752.0,2124.0,1941.0,2007.0,1769.0,1749.0,-112.65038299560547,-9.864809036254883,92.39559173583984,Left
4665.8544921875,16124,1,1560.0,1756.0,1752.0,2009.0,1773.0,2007.0,1768.0,1745.0,-112.65038299560547,-9.864809036254883,92.39559173583984,Left
4667.8544921875,16124,1,1771.0,1767.0,1755.0,1852.0,1722.0,1979.0,1763.0,1749.0,-112.65038299560547,-9.864809036254883,92.39559173583984,Left
4659.8544921875,16125,1,2019.0,1735.0,1755.0,1459.0,1483.0,1553.0,1751.0,1747.0,-112.65038299560547,-9.864809036254883,92.39559173583984,Left
4661.8544921875,16125,1,2136.0,1704.0,1755.0,1235.0,1484.0,1523.0,1752.0,1748.0,-112.65038299560547,-9.864809036254883,92.39559173583984,Left
4663.8544921875,16125,1,2029.0,1709.0,1753.0,1370.0,1611.0,1533.0,1753.0,1746.0,-112.65038299560547,-9.864809036254883,92.39559173583984,Left
4665.8544921875,16125,1,1846.0,1771.0,1754.0,1546.0,1740.0,1439.0,1753.0,1748.0,-112.65038299560547,-9.864809036254883,92.39559173583984,Left
4667.8544921875,16125,1,1734.0,1752.0,1752.0,1765.0,1803.0,1517.0,1753.0,1747.0,-112.65038299560547,-9.864809036254883,92.39559173583984,Left
4659.8544921875,16126,1,1558.0,1807.0,1751.0,2084.0,1933.0,1791.0,1755.0,1747.0,-112.65038299560547,-9.864809036254883,92.39559173583984,Left
4661.8544921875,16126,1,1423.0,1767.0,1755.0,2245.0,1946.0,1879.0,1763.0,1747.0,-112.65038299560547,-9.864809036254883,92.39559173583984,Left
4663.8544921875,16126,1,1437.0,1803.0,1751.0,2326.0,1933.0,2135.0,1769.0,1747.0,-112.65038299560547,-9.864809036254883,92.39559173583984,Left
4665.8544921875,16126,1,1339.0,1753.0,1753.0,2309.0,1739.0,2039.0,1767.0,1747.0,-113.78758239746094,-9.48558521270752,92.85559844970703,Left
4667.8544921875,16126,1,1612.0,1715.0,1753.0,2135.0,1643.0,1843.0,1763.0,1747.0,-113.78758239746094,-9.48558521270752,92.85559844970703,Left
4661.865234375,16127,1,2268.0,1757.0,1753.0,1741.0,1609.0,1653.0,1749.0,1747.0,-113.78758239746094,-9.48558521270752,92.85559844970703,Left
4663.865234375,16127,1,2300.0,1735.0,1755.0,1339.0,1509.0,1461.0,1752.0,1743.0,-113.78758239746094,-9.48558521270752,92.85559844970703,Left
4665.865234375,16127,1,2091.0,1721.0,1753.0,1399.0,1593.0,1491.0,1752.0,1747.0,-113.78758239746094,-9.48558521270752,92.85559844970703,Left
4667.865234375,16127,1,1845.0,1743.0,1755.0,1495.0,1723.0,1583.0,1755.0,1749.0,-113.78758239746094,-9.48558521270752,92.85559844970703,Left
4669.865234375,16127,1,1684.0,1781.0,1753.0,1647.0,1824.0,1662.0,1757.0,1746.0,-113.78758239746094,-9.48558521270752,92.85559844970703,Left
4661.865234375,16128,1,1495.0,1787.0,1755.0,1951.0,1916.0,1885.0,1755.0,1747.0,-113.78758239746094,-9.48558521270752,92.85559844970703,Left
4663.865234375,16128,1,1418.0,1813.0,1754.0,2133.0,1951.0,2031.0,1763.0,1747.0,-113.78758239746094,-9.48558521270752,92.85559844970703,Left
4665.865234375,16128,1,1515.0,1787.0,1752.0,2239.0,1917.0,2044.0,1771.0,1743.0,-113.78758239746094,-9.48558521270752,92.85559844970703,Left
4667.865234375,16128,1,1582.0,1781.0,1756.0,2119.0,1819.0,2020.0,1762.0,1747.0,-113.78758239746094,-9.48558521270752,92.85559844970703,Left
4669.865234375,16128,1,1781.0,1721.0,1753.0,1940.0,1685.0,1765.0,1763.0,1749.0,-113.78758239746094,-9.48558521270752,92.85559844970703,Left
4661.865234375,16129,1,2084.0,1709.0,1752.0,1545.0,1503.0,1645.0,1751.0,1747.0,-113.78758239746094,-9.48558521270752,92.85559844970703,Left
4663.865234375,16129,1,2233.0,1735.0,1751.0,1225.0,1512.0,1557.0,1753.0,1743.0,-113.78758239746094,-9.48558521270752,92.85559844970703,Left
4665.865234375,16129,1,1949.0,1711.0,1753.0,1275.0,1580.0,1438.0,1753.0,1747.0,-113.78758239746094,-9.48558521270752,92.85559844970703,Left
4667.865234375,16129,1,1891.0,1767.0,1755.0,1485.0,1783.0,1506.0,1753.0,1747.0,-113.78758239746094,-9.48558521270752,92.85559844970703,Left
4669.865234375,16129,1,1671.0,1749.0,1755.0,1576.0,1800.0,1576.0,1754.0,1747.0,-113.78758239746094,-9.48558521270752,92.85559844970703,Left
4661.865234375,16130,1,1438.0,1782.0,1752.0,1895.0,1895.0,1907.0,1753.0,1747.0,-113.78758239746094,-9.48558521270752,92.85559844970703,Left
4663.865234375,16130,1,1403.0,1798.0,1751.0,2095.0,1951.0,2131.0,1763.0,1736.0,-113.78758239746094,-9.48558521270752,92.85559844970703,Left
4665.865234375,16130,1,1495.0,1770.0,1755.0,2219.0,1927.0,2110.0,1767.0,1747.0,-113.78758239746094,-9.48558521270752,92.85559844970703,Left
4667.865234375,16130,1,1505.0,1755.0,1753.0,2079.0,1767.0,1945.0,1767.0,1747.0,-113.78758239746094,-9.48558521270752,92.85559844970703,Left
4669.865234375,16130,1,1783.0,1751.0,1755.0,1930.0,1703.0,1804.0,1758.0,1747.0,-113.78758239746094,-9.48558521270752,92.85559844970703,Left
4663.87841796875,16131,1,2197.0,1747.0,1755.0,1478.0,1591.0,1663.0,1749.0,1747.0,-113.78758239746094,-9.48558521270752,92.85559844970703,Left
4665.87841796875,16131,1,2195.0,1703.0,1755.0,1277.0,1477.0,1403.0,1753.0,1748.0,-113.78758239746094,-9.48558521270752,92.85559844970703,Left
4667.87841796875,16131,1,2127.0,1740.0,1753.0,1397.0,1621.0,1467.0,1749.0,1747.0,-113.78758239746094,-9.48558521270752,92.85559844970703,Left
4669.87841796875,16131,1,1791.0,1757.0,1753.0,1692.0,1718.0,1555.0,1755.0,1745.0,-113.78758239746094,-9.48558521270752,92.85559844970703,Left
4671.87841796875,16131,1,1428.0,1735.0,1751.0,1822.0,1764.0,1565.0,1755.0,1747.0,-113.78758239746094,-9.48558521270752,92.85559844970703,Left
4663.87841796875,16132,1,1482.0,1767.0,1755.0,2032.0,1902.0,1709.0,1755.0,1747.0,-113.78758239746094,-9.48558521270752,92.85559844970703,Left
4665.87841796875,16132,1,1471.0,1759.0,1752.0,2135.0,1929.0,2075.0,1763.0,1747.0,-113.78758239746094,-9.48558521270752,92.85559844970703,Left
4667.87841796875,16132,1,1567.0,1831.0,1753.0,2230.0,1955.0,2280.0,1767.0,1743.0,-113.78758239746094,-9.48558521270752,92.85559844970703,Left
4669.87841796875,16132,1,1503.0,1775.0,1754.0,2125.0,1781.0,2029.0,1767.0,1739.0,-113.78758239746094,-9.48558521270752,92.85559844970703,Left
4671.87841796875,16132,1,1751.0,1753.0,1754.0,1903.0,1691.0,1891.0,1763.0,1747.0,-113.78758239746094,-9.48558521270752,92.85559844970703,Left
4663.87841796875,16133,1,2145.0,1719.0,1753.0,1419.0,1517.0,1575.0,1750.0,1748.0,-113.78758239746094,-9.48558521270752,92.85559844970703,Left
4665.87841796875,16133,1,2204.0,1679.0,1755.0,1151.0,1507.0,1131.0,1753.0,1747.0,-113.80256652832031,-9.259573936462402,93.14583587646484,Left
4667.87841796875,16133,1,2055.0,1755.0,1751.0,1240.0,1641.0,1287.0,1751.0,1749.0,-113.80256652832031,-9.259573936462402,93.14583587646484,Left
4669.87841796875,16133,1,1911.0,1755.0,1752.0,1413.0,1791.0,1497.0,1753.0,1746.0,-113.80256652832031,-9.259573936462402,93.14583587646484,Left
4671.87841796875,16133,1,1786.0,1753.0,1752.0,1567.0,1827.0,1705.0,1755.0,1750.0,-113.80256652832031,-9.259573936462402,93.14583587646484,Left
4663.87841796875,16134,1,1503.0,1799.0,1831.0,1839.0,1929.0,2035.0,1753.0,1749.0,-113.80256652832031,-9.259573936462402,93.14583587646484,Left
4665.87841796875,16134,1,1351.0,1819.0,1754.0,2083.0,1948.0,2151.0,1765.0,1747.0,-113.80256652832031,-9.259573936462402,93.14583587646484,Left
4667.87841796875,16134,1,1389.0,1816.0,1753.0,2202.0,1903.0,2264.0,1769.0,1747.0,-113.80256652832031,-9.259573936462402,93.14583587646484,Left
4669.87841796875,16134,1,1512.0,1738.0,1756.0,2151.0,1743.0,2095.0,1764.0,1749.0,-113.80256652832031,-9.259573936462402,93.14583587646484,Left
4671.87841796875,16134,1,1837.0,1771.0,1753.0,1958.0,1704.0,1897.0,1764.0,1747.0,-113.80256652832031,-9.259573936462402,93.14583587646484,Left
4665.88916015625,16135,1,2068.0,1703.0,1751.0,1499.0,1527.0,1509.0,1743.0,1739.0,-113.80256652832031,-9.259573936462402,93.14583587646484,Left
4667.88916015625,16135,1,2249.0,1719.0,1755.0,1245.0,1525.0,1227.0,1750.0,1748.0,-113.80256652832031,-9.259573936462402,93.14583587646484,Left
4669.88916015625,16135,1,2109.0,1722.0,1755.0,1253.0,1625.0,1133.0,1753.0,1747.0,-113.80256652832031,-9.259573936462402,93.14583587646484,Left
4671.88916015625,16135,1,1883.0,1743.0,1752.0,1448.0,1756.0,1499.0,1755.0,1748.0,-113.80256652832031,-9.259573936462402,93.14583587646484,Left
4673.88916015625,16135,1,1687.0,1782.0,1751.0,1635.0,1837.0,1755.0,1754.0,1749.0,-113.80256652832031,-9.259573936462402,93.14583587646484,Left
4665.88916015625,16136,1,1467.0,1786.0,1755.0,1919.0,1926.0,1958.0,1753.0,1748.0,-113.80256652832031,-9.259573936462402,93.14583587646484,Left
4667.88916015625,16136,1,1461.0,1811.0,1755.0,2058.0,1965.0,2103.0,1762.0,1749.0,-113.80256652832031,-9.259573936462402,93.14583587646484,Left
4669.88916015625,16136,1,1455.0,1752.0,1755.0,2167.0,1903.0,2295.0,1766.0,1743.0,-113.80256652832031,-9.259573936462402,93.14583587646484,Left
4671.88916015625,16136,1,1559.0,1823.0,1756.0,2079.0,1805.0,2087.0,1766.0,1747.0,-113.80256652832031,-9.259573936462402,93.14583587646484,Left
4673.88916015625,16136,1,1625.0,1688.0,1755.0,1847.0,1587.0,1708.0,1763.0,1747.0,-113.80256652832031,-9.259573936462402,93.14583587646484,Left
4665.88916015625,16137,1,2032.0,1677.0,1753.0,1431.0,1481.0,1461.0,1751.0,1747.0,-113.80256652832031,-9.259573936462402,93.14583587646484,Left
4667.88916015625,16137,1,2213.0,1717.0,1753.0,1259.0,1528.0,1301.0,1753.0,1749.0,-113.80256652832031,-9.259573936462402,93.14583587646484,Left
4669.88916015625,16137,1,2133.0,1743.0,1754.0,1327.0,1670.0,1444.0,1753.0,1747.0,-113.80256652832031,-9.259573936462402,93.14583587646484,Left
4671.88916015625,16137,1,1918.0,1761.0,1755.0,1499.0,1775.0,1582.0,1752.0,1747.0,-113.80256652832031,-9.259573936462402,93.14583587646484,Left
4673.88916015625,16137,1,1734.0,1799.0,1752.0,1752.0,1844.0,1753.0,1753.0,1748.0,-113.80256652832031,-9.259573936462402,93.14583587646484,Left
4665.88916015625,16138,1,1436.0,1803.0,1755.0,2009.0,1891.0,1990.0,1755.0,1747.0,-113.80256652832031,-9.259573936462402,93.14583587646484,Left
4667.88916015625,16138,1,1271.0,1767.0,1752.0,2166.0,1901.0,2088.0,1763.0,1747.0,-113.80256652832031,-9.259573936462402,93.14583587646484,Left
4669.88916015625,16138,1,1553.0,1783.0,1749.0,2296.0,1903.0,2086.0,1770.0,1748.0,-113.80256652832031,-9.259573936462402,93.14583587646484,Left
4671.88916015625,16138,1,1613.0,1791.0,1752.0,2215.0,1813.0,2025.0,1766.0,1749.0,-113.80256652832031,-9.259573936462402,93.14583587646484,Left
4673.88916015625,16138,1,1878.0,1770.0,1755.0,1885.0,1743.0,1919.0,1759.0,1746.0,-113.80256652832031,-9.259573936462402,93.14583587646484,Left
4669.6162109375,16139,1,2091.0,1707.0,1755.0,1519.0,1483.0,1308.0,1750.0,1748.0,-113.80256652832031,-9.259573936462402,93.14583587646484,Left
4671.6162109375,16139,1,2085.0,1707.0,1755.0,1351.0,1509.0,1367.0,1753.0,1747.0,-113.80256652832031,-9.259573936462402,93.14583587646484,Left
4673.6162109375,16139,1,2036.0,1750.0,1753.0,1373.0,1615.0,1305.0,1753.0,1747.0,-113.80256652832031,-9.259573936462402,93.14583587646484,Left
4675.6162109375,16139,1,1897.0,1748.0,1757.0,1587.0,1733.0,1577.0,1755.0,1747.0,-113.66156768798828,-9.208229064941406,93.12273406982422,Left
4677.6162109375,16139,1,1683.0,1763.0,1757.0,1747.0,1803.0,1711.0,1755.0,1751.0,-113.66156768798828,-9.208229064941406,93.12273406982422,Left
4766.3544921875,16140,1,1624.0,1816.0,1755.0,2006.0,1973.0,1959.0,1756.0,1745.0,-113.66156768798828,-9.208229064941406,93.12273406982422,Left
4768.3544921875,16140,1,1449.0,1791.0,1755.0,2123.0,1934.0,2099.0,1763.0,1743.0,-113.66156768798828,-9.208229064941406,93.12273406982422,Left
4770.3544921875,16140,1,1494.0,1779.0,1747.0,2185.0,1887.0,2095.0,1767.0,1741.0,-113.66156768798828,-9.208229064941406,93.12273406982422,Left
4772.3544921875,16140,1,1502.0,1767.0,1745.0,2056.0,1801.0,1907.0,1764.0,1743.0,-113.66156768798828,-9.208229064941406,93.12273406982422,Left
4774.3544921875,16140,1,1529.0,1701.0,1753.0,1878.0,1599.0,1773.0,1767.0,1743.0,-113.66156768798828,-9.208229064941406,93.12273406982422,Left
4766.3544921875,16141,1,2021.0,1769.0,1755.0,1455.0,1575.0,1615.0,1747.0,1747.0,-113.66156768798828,-9.208229064941406,93.12273406982422,Left
4768.3544921875,16141,1,2279.0,1695.0,1755.0,1193.0,1527.0,1230.0,1749.0,1749.0,-113.66156768798828,-9.208229064941406,93.12273406982422,Left
4770.3544921875,16141,1,2137.0,1753.0,1754.0,1226.0,1635.0,1484.0,1753.0,1748.0,-113.66156768798828,-9.208229064941406,93.12273406982422,Left
4772.3544921875,16141,1,1910.0,1754.0,1751.0,1405.0,1753.0,1556.0,1752.0,1748.0,-113.66156768798828,-9.208229064941406,93.12273406982422,Left
4774.3544921875,16141,1,1725.0,1758.0,1753.0,1638.0,1823.0,1819.0,1755.0,1747.0,-113.66156768798828,-9.208229064941406,93.12273406982422,Left
4776.861328125,16142,1,1512.0,1797.0,1755.0,2023.0,1925.0,2003.0,1755.0,1749.0,-113.66156768798828,-9.208229064941406,93.12273406982422,Left
4778.861328125,16142,1,1401.0,1783.0,1753.0,2248.0,1913.0,2125.0,1759.0,1743.0,-113.66156768798828,-9.208229064941406,93.12273406982422,Left
4780.861328125,16142,1,1491.0,1737.0,1753.0,2229.0,1851.0,1930.0,1768.0,1749.0,-113.66156768798828,-9.208229064941406,93.12273406982422,Left
4782.861328125,16142,1,1461.0,1749.0,1753.0,2120.0,1801.0,1973.0,1767.0,1749.0,-113.66156768798828,-9.208229064941406,93.12273406982422,Left
4784.861328125,16142,1,1625.0,1757.0,1755.0,1809.0,1675.0,1913.0,1763.0,1747.0,-113.66156768798828,-9.208229064941406,93.12273406982422,Left
4777.92236328125,16143,1,2066.0,1707.0,1755.0,1423.0,1547.0,1437.0,1751.0,1747.0,-113.66156768798828,-9.208229064941406,93.12273406982422,Left
4779.92236328125,16143,1,2247.0,1694.0,1755.0,1327.0,1499.0,1164.0,1753.0,1747.0,-113.66156768798828,-9.208229064941406,93.12273406982422,Left
4781.92236328125,16143,1,2104.0,1769.0,1753.0,1307.0,1655.0,1371.0,1753.0,1747.0,-113.66156768798828,-9.208229064941406,93.12273406982422,Left
4783.92236328125,16143,1,1879.0,1781.0,1753.0,1437.0,1769.0,1581.0,1752.0,1743.0,-113.66156768798828,-9.208229064941406,93.12273406982422,Left
4785.92236328125,16143,1,1724.0,1769.0,1752.0,1653.0,1831.0,1719.0,1753.0,1748.0,-113.66156768798828,-9.208229064941406,93.12273406982422,Left
4777.92236328125,16144,1,1500.0,1785.0,1755.0,1944.0,1908.0,2021.0,1755.0,1747.0,-113.66156768798828,-9.208229064941406,93.12273406982422,Left
4779.92236328125,16144,1,1352.0,1769.0,1752.0,2028.0,1891.0,2121.0,1765.0,1749.0,-113.66156768798828,-9.208229064941406,93.12273406982422,Left
4781.92236328125,16144,1,1429.0,1785.0,1755.0,2130.0,1899.0,2139.0,1769.0,1747.0,-113.66156768798828,-9.208229064941406,93.12273406982422,Left
4783.92236328125,16144,1,1543.0,1779.0,1755.0,2065.0,1801.0,2036.0,1769.0,1748.0,-113.66156768798828,-9.208229064941406,93.12273406982422,Left
4785.92236328125,16144,1,1754.0,1733.0,1755.0,1851.0,1679.0,1895.0,1765.0,1740.0,-113.66156768798828,-9.208229064941406,93.12273406982422,Left
4777.92236328125,16145,1,2093.0,1689.0,1755.0,1479.0,1519.0,1562.0,1747.0,1745.0,-113.66156768798828,-9.208229064941406,93.12273406982422,Left
4779.92236328125,16145,1,2267.0,1721.0,1755.0,1198.0,1545.0,1399.0,1751.0,1747.0,-113.66156768798828,-9.208229064941406,93.12273406982422,Left
4781.92236328125,16145,1,2137.0,1765.0,1755.0,1209.0,1669.0,1290.0,1752.0,1749.0,-113.66156768798828,-9.208229064941406,93.12273406982422,Left
4783.92236328125,16145,1,1886.0,1761.0,1753.0,1337.0,1753.0,1509.0,1754.0,1745.0,-113.66156768798828,-9.208229064941406,93.12273406982422,Left
4785.92236328125,16145,1,1657.0,1763.0,1757.0,1544.0,1815.0,1675.0,1754.0,1747.0,-113.66156768798828,-9.208229064941406,93.12273406982422,Left
4777.92236328125,16146,1,1401.0,1768.0,1753.0,1835.0,1881.0,1897.0,1754.0,1747.0,-113.77664947509766,-9.093104362487793,93.08674621582031,Left
4779.92236328125,16146,1,1359.0,1783.0,1752.0,2105.0,1926.0,2129.0,1763.0,1747.0,-113.77664947509766,-9.093104362487793,93.08674621582031,Left
4781.92236328125,16146,1,1416.0,1768.0,1752.0,2259.0,1887.0,2120.0,1767.0,1747.0,-113.77664947509766,-9.093104362487793,93.08674621582031,Left
4783.92236328125,16146,1,1527.0,1765.0,1753.0,2285.0,1773.0,2059.0,1767.0,1749.0,-113.77664947509766,-9.093104362487793,93.08674621582031,Left
4785.92236328125,16146,1,1863.0,1769.0,1752.0,2013.0,1723.0,1813.0,1757.0,1747.0,-113.77664947509766,-9.093104362487793,93.08674621582031,Left
4777.92236328125,16147,1,2066.0,1727.0,1753.0,1605.0,1541.0,1607.0,1749.0,1752.0,-113.77664947509766,-9.093104362487793,93.08674621582031,Left
4779.92236328125,16147,1,2171.0,1676.0,1753.0,1433.0,1517.0,1261.0,1751.0,1749.0,-113.77664947509766,-9.093104362487793,93.08674621582031,Left
4781.92236328125,16147,1,2037.0,1752.0,1755.0,1452.0,1619.0,1499.0,1752.0,1747.0,-113.77664947509766,-9.093104362487793,93.08674621582031,Left
4783.92236328125,16147,1,1883.0,1775.0,1755.0,1531.0,1749.0,1405.0,1755.0,1747.0,-113.77664947509766,-9.093104362487793,93.08674621582031,Left
4785.92236328125,16147,1,1717.0,1751.0,1752.0,1583.0,1799.0,1577.0,1756.0,1747.0,-113.77664947509766,-9.093104362487793,93.08674621582031,Left
4777.92236328125,16148,1,1507.0,1768.0,1753.0,1947.0,1907.0,2005.0,1755.0,1747.0,-113.77664947509766,-9.093104362487793,93.08674621582031,Left
4779.92236328125,16148,1,1405.0,1806.0,1753.0,2133.0,1957.0,1977.0,1765.0,1747.0,-113.77664947509766,-9.093104362487793,93.08674621582031,Left
4781.92236328125,16148,1,1495.0,1791.0,1752.0,2151.0,1962.0,2137.0,1767.0,1743.0,-113.77664947509766,-9.093104362487793,93.08674621582031,Left
4783.92236328125,16148,1,1509.0,1743.0,1755.0,2043.0,1802.0,2094.0,1768.0,1747.0,-113.77664947509766,-9.093104362487793,93.08674621582031,Left
4785.92236328125,16148,1,1753.0,1749.0,1754.0,1819.0,1679.0,1839.0,1763.0,1748.0,-113.77664947509766,-9.093104362487793,93.08674621582031,Left
4777.92236328125,16149,1,2059.0,1721.0,1755.0,1451.0,1510.0,1587.0,1752.0,1749.0,-113.77664947509766,-9.093104362487793,93.08674621582031,Left
4779.92236328125,16149,1,2120.0,1746.0,1755.0,1287.0,1513.0,1330.0,1752.0,1747.0,-113.77664947509766,-9.093104362487793,93.08674621582031,Left
4781.92236328125,16149,1,2133.0,1755.0,1752.0,1224.0,1645.0,1381.0,1751.0,1747.0,-113.77664947509766,-9.093104362487793,93.08674621582031,Left
4783.92236328125,16149,1,1943.0,1747.0,1741.0,1423.0,1749.0,1597.0,1749.0,1743.0,-113.77664947509766,-9.093104362487793,93.08674621582031,Left
4785.92236328125,16149,1,1691.0,1765.0,1753.0,1627.0,1809.0,1553.0,1753.0,1749.0,-113.77664947509766,-9.093104362487793,93.08674621582031,Left
4782.435546875,16150,1,1465.0,1771.0,1751.0,1917.0,1893.0,1991.0,1741.0,1737.0,-113.77664947509766,-9.093104362487793,93.08674621582031,Left
4784.435546875,16150,1,1335.0,1767.0,1757.0,2152.0,1919.0,2173.0,1763.0,1749.0,-113.77664947509766,-9.093104362487793,93.08674621582031,Left
4786.435546875,16150,1,1485.0,1781.0,1754.0,2211.0,1919.0,2187.0,1769.0,1747.0,-113.77664947509766,-9.093104362487793,93.08674621582031,Left
4788.435546875,16150,1,1603.0,1780.0,1754.0,2175.0,1838.0,2072.0,1765.0,1749.0,-113.77664947509766,-9.093104362487793,93.08674621582031,Left
4790.435546875,16150,1,1773.0,1749.0,1751.0,2055.0,1692.0,1895.0,1763.0,1747.0,-113.77664947509766,-9.093104362487793,93.08674621582031,Left
5171.451171875,16151,1,1917.0,1747.0,1752.0,1637.0,1516.0,1765.0,1747.0,1747.0,-113.77664947509766,-9.093104362487793,93.08674621582031,Left
5173.451171875,16151,1,2317.0,1700.0,1756.0,1425.0,1496.0,1327.0,1751.0,1747.0,-113.77664947509766,-9.093104362487793,93.08674621582031,Left
5175.451171875,16151,1,2126.0,1771.0,1755.0,1405.0,1625.0,1331.0,1748.0,1745.0,-113.77664947509766,-9.093104362487793,93.08674621582031,Left
5177.451171875,16151,1,1850.0,1739.0,1753.0,1433.0,1711.0,1293.0,1756.0,1746.0,-113.77664947509766,-9.093104362487793,93.08674621582031,Left
5179.451171875,16151,1,1687.0,1750.0,1753.0,1643.0,1797.0,1356.0,1755.0,1743.0,-113.77664947509766,-9.093104362487793,93.08674621582031,Left
5171.451171875,16152,1,1545.0,1787.0,1753.0,1817.0,1939.0,1661.0,1754.0,1747.0,-113.77664947509766,-9.093104362487793,93.08674621582031,Left
5173.451171875,16152,1,1413.0,1782.0,1752.0,2030.0,1933.0,2123.0,1765.0,1749.0,-113.77664947509766,-9.093104362487793,93.08674621582031,Left
5175.451171875,16152,1,1449.0,1769.0,1755.0,2135.0,1883.0,2276.0,1767.0,1748.0,-113.77664947509766,-9.093104362487793,93.08674621582031,Left
5177.451171875,16152,1,1523.0,1785.0,1753.0,2187.0,1837.0,2155.0,1767.0,1743.0,-113.69976043701172,-8.984562873840332,93.09297943115234,Left
5179.451171875,16152,1,1791.0,1759.0,1753.0,1894.0,1719.0,2021.0,1759.0,1747.0,-113.69976043701172,-8.984562873840332,93.09297943115234,Left
5171.451171875,16153,1,2125.0,1709.0,1755.0,1544.0,1532.0,1493.0,1752.0,1748.0,-113.69976043701172,-8.984562873840332,93.09297943115234,Left
5173.451171875,16153,1,2165.0,1717.0,1755.0,1318.0,1513.0,1371.0,1752.0,1753.0,-113.69976043701172,-8.984562873840332,93.09297943115234,Left
5175.451171875,16153,1,1977.0,1765.0,1753.0,1299.0,1625.0,1434.0,1751.0,1748.0,-113.69976043701172,-8.984562873840332,93.09297943115234,Left
5177.451171875,16153,1,1843.0,1767.0,1755.0,1463.0,1735.0,1598.0,1752.0,1749.0,-113.69976043701172,-8.984562873840332,93.09297943115234,Left
5179.451171875,16153,1,1647.0,1725.0,1753.0,1593.0,1772.0,1682.0,1753.0,1747.0,-113.69976043701172,-8.984562873840332,93.09297943115234,Left
5177.142578125,16154,1,1548.0,1804.0,1754.0,1957.0,1935.0,1967.0,1755.0,1747.0,-113.69976043701172,-8.984562873840332,93.09297943115234,Left
5179.142578125,16154,1,1501.0,1812.0,1752.0,2157.0,1964.0,2155.0,1763.0,1747.0,-113.69976043701172,-8.984562873840332,93.09297943115234,Left
5181.142578125,16154,1,1495.0,1763.0,1755.0,2159.0,1899.0,2120.0,1771.0,1748.0,-113.69976043701172,-8.984562873840332,93.09297943115234,Left
5183.142578125,16154,1,1529.0,1799.0,1755.0,2040.0,1832.0,2085.0,1768.0,1743.0,-113.69976043701172,-8.984562873840332,93.09297943115234,Left
5185.142578125,16154,1,1605.0,1752.0,1747.0,1851.0,1659.0,1815.0,1763.0,1747.0,-113.69976043701172,-8.984562873840332,93.09297943115234,Left
5179.1513671875,16155,1,2023.0,1685.0,1747.0,1416.0,1509.0,1525.0,1749.0,1747.0,-113.69976043701172,-8.984562873840332,93.09297943115234,Left
5181.1513671875,16155,1,2247.0,1711.0,1752.0,1112.0,1523.0,1203.0,1747.0,1749.0,-113.69976043701172,-8.984562873840332,93.09297943115234,Left
5183.1513671875,16155,1,2072.0,1685.0,1755.0,1145.0,1578.0,1227.0,1751.0,1747.0,-113.69976043701172,-8.984562873840332,93.09297943115234,Left
5185.1513671875,16155,1,1935.0,1775.0,1758.0,1370.0,1747.0,1553.0,1755.0,1747.0,-113.69976043701172,-8.984562873840332,93.09297943115234,Left
5187.1513671875,16155,1,1751.0,1804.0,1755.0,1563.0,1823.0,1767.0,1755.0,1749.0,-113.69976043701172,-8.984562873840332,93.09297943115234,Left
5179.1513671875,16156,1,1577.0,1786.0,1755.0,1890.0,1929.0,2041.0,1755.0,1747.0,-113.69976043701172,-8.984562873840332,93.09297943115234,Left
5181.1513671875,16156,1,1403.0,1796.0,1754.0,2182.0,1951.0,2159.0,1763.0,1748.0,-113.69976043701172,-8.984562873840332,93.09297943115234,Left
5183.1513671875,16156,1,1427.0,1791.0,1755.0,2236.0,1885.0,2227.0,1769.0,1746.0,-113.69976043701172,-8.984562873840332,93.09297943115234,Left
5185.1513671875,16156,1,1425.0,1765.0,1755.0,2159.0,1821.0,2031.0,1768.0,1747.0,-113.69976043701172,-8.984562873840332,93.09297943115234,Left
5187.1513671875,16156,1,1790.0,1737.0,1752.0,1887.0,1705.0,1547.0,1763.0,1747.0,-113.69976043701172,-8.984562873840332,93.09297943115234,Left
5179.1513671875,16157,1,2014.0,1691.0,1755.0,1515.0,1510.0,1525.0,1751.0,1747.0,-113.69976043701172,-8.984562873840332,93.09297943115234,Left
5181.1513671875,16157,1,2232.0,1715.0,1752.0,1273.0,1515.0,1480.0,1752.0,1747.0,-113.69976043701172,-8.984562873840332,93.09297943115234,Left
5183.1513671875,16157,1,2159.0,1723.0,1753.0,1233.0,1619.0,1402.0,1749.0,1746.0,-113.69976043701172,-8.984562873840332,93.09297943115234,Left
5185.1513671875,16157,1,1884.0,1801.0,1753.0,1467.0,1747.0,1593.0,1753.0,1743.0,-113.69976043701172,-8.984562873840332,93.09297943115234,Left
5187.1513671875,16157,1,1471.0,1741.0,1753.0,1675.0,1738.0,1622.0,1753.0,1747.0,-113.69976043701172,-8.984562873840332,93.09297943115234,Left
5179.1513671875,16158,1,1555.0,1785.0,1753.0,1980.0,1939.0,1779.0,1755.0,1741.0,-113.69976043701172,-8.984562873840332,93.09297943115234,Left
5181.1513671875,16158,1,1429.0,1779.0,1753.0,2250.0,1919.0,1939.0,1763.0,1748.0,-113.69976043701172,-8.984562873840332,93.09297943115234,Left
5183.1513671875,16158,1,1530.0,1801.0,1753.0,2333.0,1941.0,2146.0,1769.0,1748.0,-113.69976043701172,-8.984562873840332,93.09297943115234,Left
5185.1513671875,16158,1,1599.0,1797.0,1756.0,2201.0,1844.0,2155.0,1767.0,1747.0,-113.69976043701172,-8.984562873840332,93.09297943115234,Left
5187.1513671875,16158,1,1695.0,1740.0,1755.0,2070.0,1674.0,1861.0,1763.0,1747.0,-113.69976043701172,-8.984562873840332,93.09297943115234,Left
5179.1513671875,16159,1,1973.0,1745.0,1751.0,1700.0,1577.0,1515.0,1751.0,1745.0,-113.53522491455078,-8.941996574401855,93.0809097290039,Left
5181.1513671875,16159,1,2216.0,1716.0,1752.0,1416.0,1517.0,1433.0,1752.0,1747.0,-113.53522491455078,-8.941996574401855,93.0809097290039,Left
5183.1513671875,16159,1,2088.0,1692.0,1755.0,1395.0,1607.0,1245.0,1755.0,1747.0,-113.53522491455078,-8.941996574401855,93.0809097290039,Left
5185.1513671875,16159,1,1940.0,1816.0,1754.0,1513.0,1769.0,1499.0,1756.0,1747.0,-113.53522491455078,-8.941996574401855,93.0809097290039,Left
5187.1513671875,16159,1,1677.0,1751.0,1755.0,1605.0,1782.0,1789.0,1755.0,1747.0,-113.53522491455078,-8.941996574401855,93.0809097290039,Left
5179.1513671875,16160,1,1547.0,1791.0,1753.0,1893.0,1935.0,2095.0,1758.0,1746.0,-113.53522491455078,-8.941996574401855,93.0809097290039,Left
5181.1513671875,16160,1,1419.0,1799.0,1753.0,2029.0,1947.0,2215.0,1762.0,1747.0,-113.53522491455078,-8.941996574401855,93.0809097290039,Left
5183.1513671875,16160,1,1483.0,1789.0,1752.0,2223.0,1910.0,2149.0,1767.0,1747.0,-113.53522491455078,-8.941996574401855,93.0809097290039,Left
5185.1513671875,16160,1,1481.0,1749.0,1753.0,2219.0,1783.0,2071.0,1765.0,1749.0,-113.53522491455078,-8.941996574401855,93.0809097290039,Left
5187.1513671875,16160,1,1693.0,1715.0,1753.0,1909.0,1639.0,1717.0,1747.0,1747.0,-113.53522491455078,-8.941996574401855,93.0809097290039,Left
5179.1513671875,16161,1,2030.0,1726.0,1741.0,1481.0,1553.0,1566.0,1751.0,1748.0,-113.53522491455078,-8.941996574401855,93.0809097290039,Left
5181.1513671875,16161,1,2303.0,1747.0,1755.0,1268.0,1561.0,1173.0,1753.0,1742.0,-113.53522491455078,-8.941996574401855,93.0809097290039,Left
5183.1513671875,16161,1,2167.0,1769.0,1752.0,1150.0,1660.0,1567.0,1752.0,1747.0,-113.53522491455078,-8.941996574401855,93.0809097290039,Left
5185.1513671875,16161,1,1897.0,1745.0,1755.0,1230.0,1716.0,1407.0,1755.0,1748.0,-113.53522491455078,-8.941996574401855,93.0809097290039,Left
5187.1513671875,16161,1,1670.0,1769.0,1757.0,1491.0,1823.0,1503.0,1755.0,1747.0,-113.53522491455078,-8.941996574401855,93.0809097290039,Left
5179.1513671875,16162,1,1431.0,1752.0,1751.0,1806.0,1881.0,1776.0,1753.0,1747.0,-113.53522491455078,-8.941996574401855,93.0809097290039,Left
5181.1513671875,16162,1,1375.0,1803.0,1757.0,2101.0,1929.0,1997.0,1759.0,1745.0,-113.53522491455078,-8.941996574401855,93.0809097290039,Left
5183.1513671875,16162,1,1531.0,1827.0,1753.0,2197.0,1917.0,2265.0,1769.0,1747.0,-113.53522491455078,-8.941996574401855,93.0809097290039,Left
5185.1513671875,16162,1,1391.0,1716.0,1755.0,2231.0,1745.0,2084.0,1769.0,1747.0,-113.53522491455078,-8.941996574401855,93.0809097290039,Left
5187.1513671875,16162,1,1739.0,1745.0,1753.0,1946.0,1699.0,1845.0,1763.0,1747.0,-113.53522491455078,-8.941996574401855,93.0809097290039,Left
5179.1513671875,16163,1,2117.0,1725.0,1753.0,1543.0,1564.0,1510.0,1751.0,1747.0,-113.53522491455078,-8.941996574401855,93.0809097290039,Left
5181.1513671875,16163,1,2275.0,1707.0,1753.0,1289.0,1549.0,1286.0,1751.0,1747.0,-113.53522491455078,-8.941996574401855,93.0809097290039,Left
5183.1513671875,16163,1,2121.0,1749.0,1752.0,1299.0,1637.0,1351.0,1753.0,1747.0,-113.53522491455078,-8.941996574401855,93.0809097290039,Left
5185.1513671875,16163,1,1863.0,1771.0,1755.0,1512.0,1747.0,1573.0,1751.0,1745.0,-113.53522491455078,-8.941996574401855,93.0809097290039,Left
5187.1513671875,16163,1,1671.0,1757.0,1755.0,1633.0,1787.0,1747.0,1755.0,1749.0,-113.53522491455078,-8.941996574401855,93.0809097290039,Left
5184.2568359375,16164,1,1527.0,1797.0,1752.0,1927.0,1913.0,2031.0,1755.0,1747.0,-113.53522491455078,-8.941996574401855,93.0809097290039,Left
5186.2568359375,16164,1,1395.0,1781.0,1751.0,2143.0,1901.0,2155.0,1757.0,1745.0,-113.53522491455078,-8.941996574401855,93.0809097290039,Left
5188.2568359375,16164,1,1433.0,1775.0,1755.0,2293.0,1864.0,2277.0,1769.0,1749.0,-113.53522491455078,-8.941996574401855,93.0809097290039,Left
