Timestamp_ms,Packet_Number,Trial_ID,Ch1,Ch2,Ch3,Ch4,Ch5,Ch6,Ch7,Ch8,Ch9,Ch10,Ch11,Label
2052.68994140625,11235,1,1754.0,1763.0,1765.0,1765.0,1752.0,1749.0,1758.0,1745.0,99.17796325683594,14.271785736083984,70.94747161865234,Left
2054.68994140625,11235,1,1759.0,1759.0,1757.0,1772.0,1749.0,1751.0,1757.0,1751.0,99.17796325683594,14.271785736083984,70.94747161865234,Left
2056.68994140625,11235,1,1755.0,1759.0,1755.0,1753.0,1753.0,1752.0,1759.0,1741.0,99.17796325683594,14.271785736083984,70.94747161865234,Left
2058.68994140625,11235,1,1756.0,1759.0,1741.0,1659.0,1753.0,1751.0,1758.0,1741.0,99.17796325683594,14.271785736083984,70.94747161865234,Left
2060.68994140625,11235,1,1755.0,1759.0,1758.0,1641.0,1749.0,1751.0,1758.0,1750.0,99.17796325683594,14.271785736083984,70.94747161865234,Left
2071.48779296875,11236,1,1757.0,1763.0,1755.0,1659.0,1741.0,1749.0,1759.0,1746.0,99.17796325683594,14.271785736083984,70.94747161865234,Left
2073.48779296875,11236,1,1756.0,1758.0,1755.0,1720.0,1751.0,1750.0,1762.0,1756.0,99.17796325683594,14.271785736083984,70.94747161865234,Left
2075.48779296875,11236,1,1757.0,1759.0,1749.0,1843.0,1753.0,1750.0,1757.0,1763.0,99.17796325683594,14.271785736083984,70.94747161865234,Left
2077.48779296875,11236,1,1757.0,1759.0,1751.0,1805.0,1752.0,1751.0,1759.0,1743.0,99.17796325683594,14.271785736083984,70.94747161865234,Left
2079.48779296875,11236,1,1757.0,1758.0,1753.0,1878.0,1748.0,1751.0,1759.0,1726.0,99.17796325683594,14.271785736083984,70.94747161865234,Left
2075.26904296875,11237,1,1757.0,1757.0,1755.0,1849.0,1749.0,1751.0,1759.0,1743.0,99.17796325683594,14.271785736083984,70.94747161865234,Left
2077.26904296875,11237,1,1757.0,1757.0,1763.0,1834.0,1751.0,1751.0,1758.0,1765.0,99.17796325683594,14.271785736083984,70.94747161865234,Left
2079.26904296875,11237,1,1756.0,1757.0,1757.0,1703.0,1751.0,1749.0,1759.0,1742.0,99.17796325683594,14.271785736083984,70.94747161865234,Left
2081.26904296875,11237,1,1757.0,1759.0,1763.0,1754.0,1755.0,1751.0,1757.0,1753.0,99.17796325683594,14.271785736083984,70.94747161865234,Left
2083.26904296875,11237,1,1757.0,1759.0,1758.0,1700.0,1749.0,1751.0,1759.0,1741.0,99.17796325683594,14.271785736083984,70.94747161865234,Left
2076.94189453125,11238,1,1756.0,1759.0,1755.0,1733.0,1751.0,1751.0,1759.0,1755.0,99.17796325683594,14.271785736083984,70.94747161865234,Left
2078.94189453125,11238,1,1757.0,1759.0,1759.0,1720.0,1750.0,1750.0,1758.0,1745.0,99.17796325683594,14.271785736083984,70.94747161865234,Left
2080.94189453125,11238,1,1757.0,1759.0,1757.0,1625.0,1751.0,1751.0,1757.0,1723.0,99.17796325683594,14.271785736083984,70.94747161865234,Left
2082.94189453125,11238,1,1757.0,1762.0,1751.0,1663.0,1755.0,1751.0,1758.0,1746.0,99.17796325683594,14.271785736083984,70.94747161865234,Left
2084.94189453125,11238,1,1757.0,1759.0,1759.0,1622.0,1752.0,1751.0,1759.0,1759.0,99.17796325683594,14.271785736083984,70.94747161865234,Left
2087.745849609375,11239,1,1756.0,1758.0,1753.0,1612.0,1755.0,1749.0,1759.0,1771.0,99.17796325683594,14.271785736083984,70.94747161865234,Left
2089.745849609375,11239,1,1757.0,1758.0,1745.0,1605.0,1755.0,1751.0,1763.0,1753.0,99.17796325683594,14.271785736083984,70.94747161865234,Left
2091.745849609375,11239,1,1757.0,1762.0,1753.0,1677.0,1751.0,1752.0,1759.0,1741.0,99.17796325683594,14.271785736083984,70.94747161865234,Left
2093.745849609375,11239,1,1757.0,1765.0,1766.0,1752.0,1754.0,1751.0,1759.0,1745.0,99.17796325683594,14.271785736083984,70.94747161865234,Left
2095.745849609375,11239,1,1757.0,1759.0,1759.0,1799.0,1750.0,1752.0,1759.0,1741.0,99.17796325683594,14.271785736083984,70.94747161865234,Left
2094.6181640625,11240,1,1759.0,1755.0,1755.0,1791.0,1753.0,1751.0,1758.0,1741.0,99.17796325683594,14.271785736083984,70.94747161865234,Left
2096.6181640625,11240,1,1757.0,1758.0,1768.0,1759.0,1755.0,1752.0,1759.0,1753.0,99.34777069091797,14.34237289428711,70.93209075927734,Left
2098.6181640625,11240,1,1755.0,1763.0,1763.0,1779.0,1747.0,1751.0,1758.0,1753.0,99.34777069091797,14.34237289428711,70.93209075927734,Left
2100.6181640625,11240,1,1757.0,1759.0,1754.0,1743.0,1741.0,1751.0,1759.0,1755.0,99.34777069091797,14.34237289428711,70.93209075927734,Left
2102.6181640625,11240,1,1757.0,1757.0,1757.0,1763.0,1749.0,1751.0,1758.0,1757.0,99.34777069091797,14.34237289428711,70.93209075927734,Left
2105.0478515625,11241,1,1758.0,1763.0,1753.0,1781.0,1753.0,1749.0,1763.0,1741.0,99.34777069091797,14.34237289428711,70.93209075927734,Left
2107.0478515625,11241,1,1757.0,1762.0,1748.0,1757.0,1740.0,1751.0,1757.0,1725.0,99.34777069091797,14.34237289428711,70.93209075927734,Left
2109.0478515625,11241,1,1759.0,1758.0,1751.0,1865.0,1749.0,1751.0,1759.0,1741.0,99.34777069091797,14.34237289428711,70.93209075927734,Left
2111.0478515625,11241,1,1757.0,1763.0,1733.0,1803.0,1746.0,1749.0,1758.0,1755.0,99.34777069091797,14.34237289428711,70.93209075927734,Left
2113.0478515625,11241,1,1756.0,1761.0,1747.0,1753.0,1749.0,1751.0,1757.0,1757.0,99.34777069091797,14.34237289428711,70.93209075927734,Left
2115.158935546875,11242,1,1755.0,1758.0,1765.0,1671.0,1755.0,1751.0,1757.0,1750.0,99.34777069091797,14.34237289428711,70.93209075927734,Left
2117.158935546875,11242,1,1755.0,1758.0,1759.0,1612.0,1750.0,1749.0,1759.0,1727.0,99.34777069091797,14.34237289428711,70.93209075927734,Left
2119.158935546875,11242,1,1756.0,1757.0,1763.0,1634.0,1742.0,1751.0,1759.0,1739.0,99.34777069091797,14.34237289428711,70.93209075927734,Left
2121.158935546875,11242,1,1757.0,1756.0,1759.0,1741.0,1751.0,1752.0,1761.0,1756.0,99.34777069091797,14.34237289428711,70.93209075927734,Left
2123.158935546875,11242,1,1759.0,1757.0,1765.0,1687.0,1757.0,1750.0,1762.0,1772.0,99.34777069091797,14.34237289428711,70.93209075927734,Left
2126.81005859375,11243,1,1757.0,1757.0,1764.0,1705.0,1735.0,1746.0,1751.0,1752.0,99.34777069091797,14.34237289428711,70.93209075927734,Left
2128.81005859375,11243,1,1755.0,1757.0,1753.0,1724.0,1753.0,1751.0,1759.0,1751.0,99.34777069091797,14.34237289428711,70.93209075927734,Left
2130.81005859375,11243,1,1758.0,1761.0,1751.0,1753.0,1751.0,1750.0,1759.0,1727.0,99.34777069091797,14.34237289428711,70.93209075927734,Left
2132.81005859375,11243,1,1759.0,1758.0,1763.0,1707.0,1746.0,1750.0,1757.0,1728.0,99.34777069091797,14.34237289428711,70.93209075927734,Left
2134.81005859375,11243,1,1757.0,1759.0,1753.0,1836.0,1754.0,1751.0,1761.0,1741.0,99.34777069091797,14.34237289428711,70.93209075927734,Left
2140.9599609375,11244,1,1757.0,1759.0,1783.0,1811.0,1753.0,1749.0,1756.0,1755.0,99.34777069091797,14.34237289428711,70.93209075927734,Left
2142.9599609375,11244,1,1757.0,1759.0,1756.0,1861.0,1751.0,1751.0,1759.0,1741.0,99.34777069091797,14.34237289428711,70.93209075927734,Left
2144.9599609375,11244,1,1755.0,1764.0,1756.0,1884.0,1751.0,1752.0,1763.0,1750.0,99.34777069091797,14.34237289428711,70.93209075927734,Left
2146.9599609375,11244,1,1757.0,1761.0,1751.0,1869.0,1749.0,1751.0,1758.0,1751.0,99.34777069091797,14.34237289428711,70.93209075927734,Left
2148.9599609375,11244,1,1757.0,1758.0,1753.0,1772.0,1749.0,1749.0,1763.0,1757.0,99.34777069091797,14.34237289428711,70.93209075927734,Left
2143.245849609375,11245,1,1755.0,1758.0,1735.0,1721.0,1748.0,1749.0,1758.0,1753.0,99.34777069091797,14.34237289428711,70.93209075927734,Left
2145.245849609375,11245,1,1757.0,1759.0,1747.0,1811.0,1747.0,1751.0,1759.0,1749.0,99.34777069091797,14.34237289428711,70.93209075927734,Left
2147.245849609375,11245,1,1757.0,1759.0,1823.0,1803.0,1750.0,1748.0,1759.0,1743.0,99.34777069091797,14.34237289428711,70.93209075927734,Left
2149.245849609375,11245,1,1757.0,1759.0,1759.0,1861.0,1751.0,1751.0,1759.0,1735.0,99.34777069091797,14.34237289428711,70.93209075927734,Left
2151.245849609375,11245,1,1757.0,1757.0,1767.0,1837.0,1747.0,1749.0,1757.0,1748.0,99.34777069091797,14.34237289428711,70.93209075927734,Left
2154.01220703125,11246,1,1757.0,1757.0,1752.0,1763.0,1754.0,1750.0,1757.0,1753.0,99.34777069091797,14.34237289428711,70.93209075927734,Left
2156.01220703125,11246,1,1755.0,1757.0,1749.0,1674.0,1749.0,1751.0,1759.0,1754.0,99.34777069091797,14.34237289428711,70.93209075927734,Left
2158.01220703125,11246,1,1759.0,1762.0,1755.0,1693.0,1753.0,1751.0,1758.0,1763.0,99.34777069091797,14.34237289428711,70.93209075927734,Left
2160.01220703125,11246,1,1757.0,1757.0,1759.0,1709.0,1751.0,1751.0,1757.0,1747.0,100.06681823730469,14.68138599395752,71.86402893066406,Left
2162.01220703125,11246,1,1756.0,1759.0,1753.0,1684.0,1748.0,1751.0,1757.0,1724.0,100.06681823730469,14.68138599395752,71.86402893066406,Left
2165.990966796875,11247,1,1759.0,1759.0,1748.0,1683.0,1743.0,1751.0,1757.0,1737.0,100.06681823730469,14.68138599395752,71.86402893066406,Left
2167.990966796875,11247,1,1755.0,1755.0,1753.0,1706.0,1753.0,1749.0,1757.0,1741.0,100.06681823730469,14.68138599395752,71.86402893066406,Left
2169.990966796875,11247,1,1757.0,1758.0,1751.0,1715.0,1751.0,1752.0,1758.0,1751.0,100.06681823730469,14.68138599395752,71.86402893066406,Left
2171.990966796875,11247,1,1755.0,1763.0,1767.0,1663.0,1753.0,1751.0,1759.0,1767.0,100.06681823730469,14.68138599395752,71.86402893066406,Left
2173.990966796875,11247,1,1759.0,1759.0,1765.0,1781.0,1753.0,1751.0,1757.0,1753.0,100.06681823730469,14.68138599395752,71.86402893066406,Left
2193.259033203125,11248,1,1767.0,1757.0,1751.0,1962.0,1751.0,1749.0,1763.0,1739.0,100.06681823730469,14.68138599395752,71.86402893066406,Left
2195.259033203125,11248,1,1756.0,1762.0,1757.0,1883.0,1755.0,1749.0,1757.0,1759.0,100.06681823730469,14.68138599395752,71.86402893066406,Left
2197.259033203125,11248,1,1757.0,1755.0,1762.0,1753.0,1747.0,1749.0,1758.0,1747.0,100.06681823730469,14.68138599395752,71.86402893066406,Left
2199.259033203125,11248,1,1757.0,1762.0,1765.0,1693.0,1740.0,1749.0,1763.0,1752.0,100.06681823730469,14.68138599395752,71.86402893066406,Left
2201.259033203125,11248,1,1756.0,1759.0,1768.0,1719.0,1755.0,1749.0,1757.0,1759.0,100.06681823730469,14.68138599395752,71.86402893066406,Left
2193.72705078125,11249,1,1756.0,1759.0,1739.0,1779.0,1749.0,1749.0,1762.0,1736.0,100.06681823730469,14.68138599395752,71.86402893066406,Left
2195.72705078125,11249,1,1756.0,1761.0,1740.0,1838.0,1753.0,1751.0,1763.0,1741.0,100.06681823730469,14.68138599395752,71.86402893066406,Left
2197.72705078125,11249,1,1755.0,1756.0,1741.0,1817.0,1752.0,1751.0,1762.0,1736.0,100.06681823730469,14.68138599395752,71.86402893066406,Left
2199.72705078125,11249,1,1755.0,1759.0,1746.0,1819.0,1751.0,1752.0,1758.0,1747.0,100.06681823730469,14.68138599395752,71.86402893066406,Left
2201.72705078125,11249,1,1755.0,1757.0,1753.0,1736.0,1753.0,1751.0,1757.0,1745.0,100.06681823730469,14.68138599395752,71.86402893066406,Left
2195.666015625,11250,1,1756.0,1757.0,1757.0,1749.0,1751.0,1751.0,1763.0,1751.0,100.06681823730469,14.68138599395752,71.86402893066406,Left
2197.666015625,11250,1,1757.0,1759.0,1770.0,1708.0,1755.0,1750.0,1763.0,1759.0,100.06681823730469,14.68138599395752,71.86402893066406,Left
2199.666015625,11250,1,1756.0,1762.0,1767.0,1765.0,1753.0,1751.0,1762.0,1755.0,100.06681823730469,14.68138599395752,71.86402893066406,Left
2201.666015625,11250,1,1755.0,1757.0,1766.0,1764.0,1752.0,1750.0,1759.0,1755.0,100.06681823730469,14.68138599395752,71.86402893066406,Left
2203.666015625,11250,1,1755.0,1757.0,1756.0,1824.0,1751.0,1751.0,1757.0,1756.0,100.06681823730469,14.68138599395752,71.86402893066406,Left
2204.7490234375,11251,1,1757.0,1761.0,1753.0,1877.0,1741.0,1751.0,1761.0,1734.0,100.06681823730469,14.68138599395752,71.86402893066406,Left
2206.7490234375,11251,1,1757.0,1759.0,1749.0,1823.0,1747.0,1751.0,1756.0,1741.0,100.06681823730469,14.68138599395752,71.86402893066406,Left
2208.7490234375,11251,1,1757.0,1758.0,1754.0,1742.0,1749.0,1749.0,1759.0,1743.0,100.06681823730469,14.68138599395752,71.86402893066406,Left
2210.7490234375,11251,1,1753.0,1759.0,1746.0,1709.0,1752.0,1751.0,1757.0,1741.0,100.06681823730469,14.68138599395752,71.86402893066406,Left
2212.7490234375,11251,1,1759.0,1757.0,1749.0,1757.0,1748.0,1751.0,1759.0,1746.0,100.06681823730469,14.68138599395752,71.86402893066406,Left
2215.489990234375,11252,1,1759.0,1759.0,1767.0,1806.0,1751.0,1749.0,1763.0,1759.0,100.06681823730469,14.68138599395752,71.86402893066406,Left
2217.489990234375,11252,1,1756.0,1763.0,1755.0,1823.0,1755.0,1752.0,1757.0,1765.0,100.06681823730469,14.68138599395752,71.86402893066406,Left
2219.489990234375,11252,1,1756.0,1759.0,1765.0,1705.0,1757.0,1751.0,1762.0,1747.0,100.06681823730469,14.68138599395752,71.86402893066406,Left
2221.489990234375,11252,1,1758.0,1759.0,1761.0,1770.0,1753.0,1749.0,1759.0,1753.0,100.06681823730469,14.68138599395752,71.86402893066406,Left
2223.489990234375,11252,1,1757.0,1757.0,1757.0,1773.0,1749.0,1749.0,1759.0,1758.0,100.06681823730469,14.68138599395752,71.86402893066406,Left
2224.316162109375,11253,1,1757.0,1764.0,1755.0,1675.0,1748.0,1751.0,1761.0,1749.0,100.06681823730469,14.68138599395752,71.86402893066406,Left
2226.316162109375,11253,1,1757.0,1757.0,1754.0,1699.0,1747.0,1752.0,1757.0,1748.0,100.30146026611328,15.533815383911133,72.37812042236328,Left
2228.316162109375,11253,1,1755.0,1763.0,1756.0,1749.0,1748.0,1749.0,1759.0,1739.0,100.30146026611328,15.533815383911133,72.37812042236328,Left
2230.316162109375,11253,1,1757.0,1759.0,1755.0,1647.0,1747.0,1751.0,1758.0,1747.0,100.30146026611328,15.533815383911133,72.37812042236328,Left
2232.316162109375,11253,1,1757.0,1759.0,1748.0,1710.0,1750.0,1751.0,1759.0,1735.0,100.30146026611328,15.533815383911133,72.37812042236328,Left
2241.212890625,11254,1,1753.0,1756.0,1746.0,1718.0,1741.0,1749.0,1763.0,1727.0,100.30146026611328,15.533815383911133,72.37812042236328,Left
2243.212890625,11254,1,1755.0,1757.0,1758.0,1746.0,1752.0,1750.0,1759.0,1749.0,100.30146026611328,15.533815383911133,72.37812042236328,Left
2245.212890625,11254,1,1754.0,1759.0,1755.0,1661.0,1753.0,1751.0,1756.0,1743.0,100.30146026611328,15.533815383911133,72.37812042236328,Left
2247.212890625,11254,1,1756.0,1759.0,1752.0,1599.0,1751.0,1750.0,1759.0,1742.0,100.30146026611328,15.533815383911133,72.37812042236328,Left
2249.212890625,11254,1,1757.0,1759.0,1767.0,1723.0,1747.0,1749.0,1757.0,1769.0,100.30146026611328,15.533815383911133,72.37812042236328,Left
2246.14013671875,11255,1,1773.0,1757.0,1773.0,1779.0,1750.0,1749.0,1758.0,1784.0,100.30146026611328,15.533815383911133,72.37812042236328,Left
2248.14013671875,11255,1,1757.0,1757.0,1782.0,1804.0,1748.0,1750.0,1757.0,1763.0,100.30146026611328,15.533815383911133,72.37812042236328,Left
2250.14013671875,11255,1,1757.0,1758.0,1741.0,1798.0,1755.0,1751.0,1757.0,1752.0,100.30146026611328,15.533815383911133,72.37812042236328,Left
2252.14013671875,11255,1,1757.0,1762.0,1735.0,1875.0,1755.0,1750.0,1758.0,1727.0,100.30146026611328,15.533815383911133,72.37812042236328,Left
2254.14013671875,11255,1,1757.0,1762.0,1715.0,1910.0,1747.0,1750.0,1757.0,1706.0,100.30146026611328,15.533815383911133,72.37812042236328,Left
2257.862060546875,11256,1,1757.0,1758.0,1725.0,1884.0,1747.0,1742.0,1753.0,1721.0,100.30146026611328,15.533815383911133,72.37812042236328,Left
2259.862060546875,11256,1,1756.0,1757.0,1751.0,1805.0,1747.0,1751.0,1757.0,1757.0,100.30146026611328,15.533815383911133,72.37812042236328,Left
2261.862060546875,11256,1,1756.0,1757.0,1757.0,1784.0,1749.0,1752.0,1757.0,1771.0,100.30146026611328,15.533815383911133,72.37812042236328,Left
2263.862060546875,11256,1,1756.0,1758.0,1787.0,1820.0,1755.0,1751.0,1758.0,1766.0,100.30146026611328,15.533815383911133,72.37812042236328,Left
2265.862060546875,11256,1,1757.0,1757.0,1805.0,1878.0,1757.0,1749.0,1761.0,1766.0,100.30146026611328,15.533815383911133,72.37812042236328,Left
2270.554931640625,11257,1,1773.0,1757.0,1774.0,1835.0,1749.0,1749.0,1757.0,1739.0,100.30146026611328,15.533815383911133,72.37812042236328,Left
2272.554931640625,11257,1,1755.0,1756.0,1733.0,1837.0,1753.0,1751.0,1759.0,1736.0,100.30146026611328,15.533815383911133,72.37812042236328,Left
2274.554931640625,11257,1,1756.0,1765.0,1733.0,1759.0,1753.0,1749.0,1759.0,1740.0,100.30146026611328,15.533815383911133,72.37812042236328,Left
2276.554931640625,11257,1,1755.0,1761.0,1741.0,1739.0,1749.0,1751.0,1758.0,1741.0,100.30146026611328,15.533815383911133,72.37812042236328,Left
2278.554931640625,11257,1,1757.0,1758.0,1749.0,1717.0,1743.0,1751.0,1758.0,1727.0,100.30146026611328,15.533815383911133,72.37812042236328,Left
2276.524169921875,11258,1,1757.0,1759.0,1766.0,1710.0,1748.0,1749.0,1757.0,1763.0,100.30146026611328,15.533815383911133,72.37812042236328,Left
2278.524169921875,11258,1,1757.0,1758.0,1767.0,1741.0,1753.0,1750.0,1759.0,1769.0,100.30146026611328,15.533815383911133,72.37812042236328,Left
2280.524169921875,11258,1,1757.0,1763.0,1761.0,1743.0,1750.0,1751.0,1758.0,1742.0,100.30146026611328,15.533815383911133,72.37812042236328,Left
2282.524169921875,11258,1,1756.0,1763.0,1759.0,1663.0,1751.0,1751.0,1757.0,1747.0,100.30146026611328,15.533815383911133,72.37812042236328,Left
2284.524169921875,11258,1,1756.0,1757.0,1769.0,1699.0,1753.0,1751.0,1759.0,1748.0,100.30146026611328,15.533815383911133,72.37812042236328,Left
2284.760986328125,11259,1,1755.0,1757.0,1719.0,1765.0,1736.0,1752.0,1757.0,1725.0,100.30146026611328,15.533815383911133,72.37812042236328,Left
2286.760986328125,11259,1,1757.0,1757.0,1762.0,1742.0,1751.0,1749.0,1759.0,1736.0,100.30146026611328,15.533815383911133,72.37812042236328,Left
2288.760986328125,11259,1,1756.0,1758.0,1738.0,1693.0,1751.0,1751.0,1762.0,1751.0,100.30146026611328,15.533815383911133,72.37812042236328,Left
2290.760986328125,11259,1,1757.0,1763.0,1757.0,1753.0,1753.0,1749.0,1758.0,1754.0,99.930908203125,16.028005599975586,72.33595275878906,Left
2292.760986328125,11259,1,1759.0,1757.0,1767.0,1805.0,1751.0,1751.0,1762.0,1762.0,99.930908203125,16.028005599975586,72.33595275878906,Left
2296.010986328125,11260,1,1754.0,1757.0,1765.0,1757.0,1749.0,1753.0,1755.0,1747.0,99.930908203125,16.028005599975586,72.33595275878906,Left
2298.010986328125,11260,1,1755.0,1759.0,1752.0,1785.0,1751.0,1751.0,1761.0,1748.0,99.930908203125,16.028005599975586,72.33595275878906,Left
2300.010986328125,11260,1,1758.0,1758.0,1751.0,1741.0,1741.0,1750.0,1763.0,1747.0,99.930908203125,16.028005599975586,72.33595275878906,Left
2302.010986328125,11260,1,1757.0,1759.0,1769.0,1711.0,1755.0,1751.0,1762.0,1756.0,99.930908203125,16.028005599975586,72.33595275878906,Left
2304.010986328125,11260,1,1757.0,1755.0,1771.0,1721.0,1759.0,1751.0,1759.0,1757.0,99.930908203125,16.028005599975586,72.33595275878906,Left
2305.676025390625,11261,1,1757.0,1759.0,1737.0,1749.0,1739.0,1751.0,1757.0,1733.0,99.930908203125,16.028005599975586,72.33595275878906,Left
2307.676025390625,11261,1,1755.0,1756.0,1738.0,1720.0,1743.0,1749.0,1757.0,1727.0,99.930908203125,16.028005599975586,72.33595275878906,Left
2309.676025390625,11261,1,1755.0,1764.0,1695.0,1693.0,1737.0,1749.0,1761.0,1714.0,99.930908203125,16.028005599975586,72.33595275878906,Left
2311.676025390625,11261,1,1755.0,1758.0,1783.0,1689.0,1743.0,1751.0,1759.0,1757.0,99.930908203125,16.028005599975586,72.33595275878906,Left
2313.676025390625,11261,1,1756.0,1757.0,1775.0,1662.0,1757.0,1752.0,1759.0,1769.0,99.930908203125,16.028005599975586,72.33595275878906,Left
2313.498046875,11262,1,1755.0,1761.0,1752.0,1639.0,1763.0,1752.0,1759.0,1759.0,99.930908203125,16.028005599975586,72.33595275878906,Left
2315.498046875,11262,1,1757.0,1759.0,1759.0,1687.0,1757.0,1751.0,1759.0,1757.0,99.930908203125,16.028005599975586,72.33595275878906,Left
2317.498046875,11262,1,1757.0,1727.0,1759.0,1791.0,1754.0,1751.0,1759.0,1755.0,99.930908203125,16.028005599975586,72.33595275878906,Left
2319.498046875,11262,1,1758.0,1757.0,1758.0,1784.0,1753.0,1751.0,1763.0,1741.0,99.930908203125,16.028005599975586,72.33595275878906,Left
2321.498046875,11262,1,1756.0,1759.0,1751.0,1803.0,1749.0,1751.0,1757.0,1757.0,99.930908203125,16.028005599975586,72.33595275878906,Left
2324.725830078125,11263,1,1761.0,1757.0,1757.0,1831.0,1747.0,1749.0,1762.0,1747.0,99.930908203125,16.028005599975586,72.33595275878906,Left
2326.725830078125,11263,1,1758.0,1758.0,1769.0,1787.0,1753.0,1750.0,1758.0,1767.0,99.930908203125,16.028005599975586,72.33595275878906,Left
2328.725830078125,11263,1,1759.0,1758.0,1799.0,1840.0,1755.0,1751.0,1759.0,1773.0,99.930908203125,16.028005599975586,72.33595275878906,Left
2330.725830078125,11263,1,1757.0,1758.0,1775.0,1947.0,1751.0,1751.0,1758.0,1765.0,99.930908203125,16.028005599975586,72.33595275878906,Left
2332.725830078125,11263,1,1759.0,1758.0,1757.0,1875.0,1751.0,1753.0,1759.0,1710.0,99.930908203125,16.028005599975586,72.33595275878906,Left
2334.593017578125,11264,1,1755.0,1756.0,1727.0,1828.0,1743.0,1749.0,1758.0,1710.0,99.930908203125,16.028005599975586,72.33595275878906,Left
2336.593017578125,11264,1,1757.0,1759.0,1705.0,1743.0,1743.0,1750.0,1761.0,1735.0,99.930908203125,16.028005599975586,72.33595275878906,Left
2338.593017578125,11264,1,1755.0,1763.0,1722.0,1751.0,1742.0,1751.0,1761.0,1758.0,99.930908203125,16.028005599975586,72.33595275878906,Left
2340.593017578125,11264,1,1755.0,1764.0,1817.0,1741.0,1751.0,1751.0,1759.0,1764.0,99.930908203125,16.028005599975586,72.33595275878906,Left
2342.593017578125,11264,1,1757.0,1763.0,1763.0,1677.0,1753.0,1751.0,1757.0,1755.0,99.930908203125,16.028005599975586,72.33595275878906,Left
2362.939208984375,11265,1,1763.0,1759.0,1750.0,1599.0,1753.0,1747.0,1759.0,1739.0,99.930908203125,16.028005599975586,72.33595275878906,Left
2364.939208984375,11265,1,1753.0,1759.0,1703.0,1657.0,1748.0,1751.0,1758.0,1724.0,99.930908203125,16.028005599975586,72.33595275878906,Left
2366.939208984375,11265,1,1756.0,1763.0,1737.0,1693.0,1746.0,1753.0,1759.0,1745.0,99.930908203125,16.028005599975586,72.33595275878906,Left
2368.939208984375,11265,1,1758.0,1757.0,1767.0,1732.0,1753.0,1752.0,1759.0,1765.0,99.930908203125,16.028005599975586,72.33595275878906,Left
2370.939208984375,11265,1,1758.0,1757.0,1783.0,1752.0,1749.0,1749.0,1759.0,1766.0,99.930908203125,16.028005599975586,72.33595275878906,Left
2363.38720703125,11266,1,1753.0,1757.0,1767.0,1722.0,1755.0,1753.0,1758.0,1759.0,99.930908203125,16.028005599975586,72.33595275878906,Left
2365.38720703125,11266,1,1757.0,1759.0,1755.0,1693.0,1753.0,1751.0,1759.0,1752.0,99.56968688964844,15.846920013427734,71.68513488769531,Left
2367.38720703125,11266,1,1756.0,1775.0,1769.0,1686.0,1751.0,1750.0,1759.0,1741.0,99.56968688964844,15.846920013427734,71.68513488769531,Left
2369.38720703125,11266,1,1756.0,1757.0,1759.0,1713.0,1751.0,1751.0,1755.0,1745.0,99.56968688964844,15.846920013427734,71.68513488769531,Left
2371.38720703125,11266,1,1757.0,1757.0,1735.0,1739.0,1752.0,1749.0,1757.0,1736.0,99.56968688964844,15.846920013427734,71.68513488769531,Left
2371.010009765625,11267,1,1758.0,1757.0,1743.0,1722.0,1749.0,1753.0,1757.0,1739.0,99.56968688964844,15.846920013427734,71.68513488769531,Left
2373.010009765625,11267,1,1757.0,1759.0,1766.0,1735.0,1752.0,1751.0,1757.0,1748.0,99.56968688964844,15.846920013427734,71.68513488769531,Left
2375.010009765625,11267,1,1757.0,1761.0,1754.0,1756.0,1751.0,1749.0,1762.0,1769.0,99.56968688964844,15.846920013427734,71.68513488769531,Left
2377.010009765625,11267,1,1755.0,1757.0,1785.0,1721.0,1755.0,1751.0,1757.0,1783.0,99.56968688964844,15.846920013427734,71.68513488769531,Left
2379.010009765625,11267,1,1755.0,1756.0,1742.0,1765.0,1740.0,1749.0,1757.0,1739.0,99.56968688964844,15.846920013427734,71.68513488769531,Left
2375.1611328125,11268,1,1757.0,1757.0,1709.0,1845.0,1737.0,1751.0,1757.0,1703.0,99.56968688964844,15.846920013427734,71.68513488769531,Left
2377.1611328125,11268,1,1755.0,1759.0,1764.0,1831.0,1739.0,1752.0,1756.0,1724.0,99.56968688964844,15.846920013427734,71.68513488769531,Left
2379.1611328125,11268,1,1758.0,1758.0,1735.0,1800.0,1746.0,1751.0,1757.0,1745.0,99.56968688964844,15.846920013427734,71.68513488769531,Left
2381.1611328125,11268,1,1757.0,1759.0,1779.0,1829.0,1753.0,1751.0,1759.0,1766.0,99.56968688964844,15.846920013427734,71.68513488769531,Left
2383.1611328125,11268,1,1758.0,1756.0,1779.0,1772.0,1754.0,1750.0,1759.0,1769.0,99.56968688964844,15.846920013427734,71.68513488769531,Left
2408.365966796875,11269,1,1757.0,1759.0,1747.0,1853.0,1753.0,1751.0,1759.0,1756.0,99.56968688964844,15.846920013427734,71.68513488769531,Left
2410.365966796875,11269,1,1758.0,1755.0,1746.0,1891.0,1737.0,1752.0,1757.0,1751.0,99.56968688964844,15.846920013427734,71.68513488769531,Left
2412.365966796875,11269,1,1755.0,1757.0,1763.0,1862.0,1763.0,1750.0,1757.0,1757.0,99.56968688964844,15.846920013427734,71.68513488769531,Left
2414.365966796875,11269,1,1759.0,1761.0,1783.0,1819.0,1759.0,1751.0,1757.0,1753.0,99.56968688964844,15.846920013427734,71.68513488769531,Left
2416.365966796875,11269,1,1757.0,1759.0,1751.0,1769.0,1742.0,1751.0,1758.0,1749.0,99.56968688964844,15.846920013427734,71.68513488769531,Left
2409.01171875,11270,1,1756.0,1758.0,1741.0,1781.0,1751.0,1750.0,1757.0,1741.0,99.56968688964844,15.846920013427734,71.68513488769531,Left
2411.01171875,11270,1,1755.0,1759.0,1751.0,1805.0,1765.0,1751.0,1757.0,1737.0,99.56968688964844,15.846920013427734,71.68513488769531,Left
2413.01171875,11270,1,1755.0,1757.0,1752.0,1828.0,1737.0,1751.0,1756.0,1734.0,99.56968688964844,15.846920013427734,71.68513488769531,Left
2415.01171875,11270,1,1757.0,1759.0,1771.0,1838.0,1715.0,1749.0,1759.0,1749.0,99.56968688964844,15.846920013427734,71.68513488769531,Left
2417.01171875,11270,1,1756.0,1759.0,1762.0,1723.0,1733.0,1750.0,1759.0,1755.0,99.56968688964844,15.846920013427734,71.68513488769531,Left
2409.347900390625,11271,1,1755.0,1757.0,1782.0,1717.0,1768.0,1751.0,1759.0,1749.0,99.56968688964844,15.846920013427734,71.68513488769531,Left
2411.347900390625,11271,1,1758.0,1763.0,1747.0,1708.0,1752.0,1751.0,1758.0,1751.0,99.56968688964844,15.846920013427734,71.68513488769531,Left
2413.347900390625,11271,1,1757.0,1763.0,1763.0,1657.0,1751.0,1750.0,1757.0,1749.0,99.56968688964844,15.846920013427734,71.68513488769531,Left
2415.347900390625,11271,1,1755.0,1761.0,1751.0,1640.0,1751.0,1752.0,1755.0,1739.0,99.56968688964844,15.846920013427734,71.68513488769531,Left
2417.347900390625,11271,1,1756.0,1763.0,1746.0,1678.0,1721.0,1743.0,1757.0,1725.0,99.56968688964844,15.846920013427734,71.68513488769531,Left
2415.47119140625,11272,1,1757.0,1759.0,1721.0,1706.0,1715.0,1750.0,1763.0,1716.0,99.56968688964844,15.846920013427734,71.68513488769531,Left
2417.47119140625,11272,1,1756.0,1763.0,1748.0,1709.0,1783.0,1751.0,1758.0,1753.0,99.56968688964844,15.846920013427734,71.68513488769531,Left
2419.47119140625,11272,1,1757.0,1766.0,1754.0,1707.0,1816.0,1751.0,1762.0,1748.0,99.56968688964844,15.846920013427734,71.68513488769531,Left
2421.47119140625,11272,1,1757.0,1759.0,1767.0,1838.0,1741.0,1752.0,1758.0,1767.0,99.54998779296875,14.83713150024414,71.54561614990234,Left
2423.47119140625,11272,1,1757.0,1757.0,1779.0,1663.0,1690.0,1751.0,1758.0,1773.0,99.54998779296875,14.83713150024414,71.54561614990234,Left
2423.833984375,11273,1,1758.0,1755.0,1775.0,1595.0,1721.0,1749.0,1757.0,1765.0,99.54998779296875,14.83713150024414,71.54561614990234,Left
2425.833984375,11273,1,1757.0,1761.0,1764.0,1631.0,1812.0,1751.0,1757.0,1754.0,99.54998779296875,14.83713150024414,71.54561614990234,Left
2427.833984375,11273,1,1758.0,1763.0,1771.0,1755.0,1933.0,1751.0,1763.0,1766.0,99.54998779296875,14.83713150024414,71.54561614990234,Left
2429.833984375,11273,1,1758.0,1759.0,1759.0,1750.0,1732.0,1751.0,1759.0,1749.0,99.54998779296875,14.83713150024414,71.54561614990234,Left
2431.833984375,11273,1,1755.0,1757.0,1740.0,1740.0,1479.0,1751.0,1763.0,1708.0,99.54998779296875,14.83713150024414,71.54561614990234,Left
2439.2470703125,11274,1,1752.0,1759.0,1753.0,1685.0,1740.0,1750.0,1758.0,1746.0,99.54998779296875,14.83713150024414,71.54561614990234,Left
2441.2470703125,11274,1,1759.0,1759.0,1757.0,1723.0,1751.0,1751.0,1763.0,1756.0,99.54998779296875,14.83713150024414,71.54561614990234,Left
2443.2470703125,11274,1,1757.0,1757.0,1751.0,1779.0,1783.0,1751.0,1759.0,1727.0,99.54998779296875,14.83713150024414,71.54561614990234,Left
2445.2470703125,11274,1,1757.0,1759.0,1766.0,1805.0,2023.0,1749.0,1763.0,1769.0,99.54998779296875,14.83713150024414,71.54561614990234,Left
2447.2470703125,11274,1,1757.0,1755.0,1725.0,1847.0,1752.0,1752.0,1757.0,1711.0,99.54998779296875,14.83713150024414,71.54561614990234,Left
2455.304931640625,11275,1,1756.0,1756.0,1749.0,1932.0,1927.0,1749.0,1761.0,1769.0,99.54998779296875,14.83713150024414,71.54561614990234,Left
2457.304931640625,11275,1,1755.0,1765.0,1801.0,1973.0,1823.0,1751.0,1758.0,1766.0,99.54998779296875,14.83713150024414,71.54561614990234,Left
2459.304931640625,11275,1,1755.0,1758.0,1763.0,1979.0,1551.0,1749.0,1757.0,1752.0,99.54998779296875,14.83713150024414,71.54561614990234,Left
2461.304931640625,11275,1,1757.0,1758.0,1727.0,1879.0,1513.0,1751.0,1757.0,1749.0,99.54998779296875,14.83713150024414,71.54561614990234,Left
2463.304931640625,11275,1,1756.0,1757.0,1751.0,1881.0,1273.0,1749.0,1759.0,1739.0,99.54998779296875,14.83713150024414,71.54561614990234,Left
2481.508056640625,11276,1,1754.0,1755.0,1773.0,1881.0,1640.0,1751.0,1763.0,1753.0,99.54998779296875,14.83713150024414,71.54561614990234,Left
2483.508056640625,11276,1,1752.0,1758.0,1735.0,1845.0,1525.0,1750.0,1757.0,1739.0,99.54998779296875,14.83713150024414,71.54561614990234,Left
2485.508056640625,11276,1,1755.0,1757.0,1727.0,1772.0,2287.0,1749.0,1763.0,1747.0,99.54998779296875,14.83713150024414,71.54561614990234,Left
2487.508056640625,11276,1,1757.0,1757.0,1799.0,1809.0,2127.0,1749.0,1757.0,1783.0,99.54998779296875,14.83713150024414,71.54561614990234,Left
2489.508056640625,11276,1,1754.0,1757.0,1736.0,1763.0,1404.0,1750.0,1759.0,1689.0,99.54998779296875,14.83713150024414,71.54561614990234,Left
2482.670166015625,11277,1,1755.0,1757.0,1695.0,1646.0,1989.0,1751.0,1757.0,1694.0,99.54998779296875,14.83713150024414,71.54561614990234,Left
2484.670166015625,11277,1,1759.0,1759.0,1735.0,1653.0,1791.0,1746.0,1755.0,1753.0,99.54998779296875,14.83713150024414,71.54561614990234,Left
2486.670166015625,11277,1,1758.0,1762.0,1823.0,1677.0,1839.0,1751.0,1761.0,1833.0,99.54998779296875,14.83713150024414,71.54561614990234,Left
2488.670166015625,11277,1,1759.0,1763.0,1813.0,1691.0,1661.0,1750.0,1759.0,1781.0,99.54998779296875,14.83713150024414,71.54561614990234,Left
2490.670166015625,11277,1,1757.0,1755.0,1751.0,1657.0,1259.0,1751.0,1761.0,1723.0,99.54998779296875,14.83713150024414,71.54561614990234,Left
2483.072998046875,11278,1,1755.0,1755.0,1705.0,1687.0,2357.0,1751.0,1759.0,1720.0,99.54998779296875,14.83713150024414,71.54561614990234,Left
2485.072998046875,11278,1,1755.0,1758.0,1789.0,1762.0,2275.0,1749.0,1759.0,1785.0,99.54998779296875,14.83713150024414,71.54561614990234,Left
2487.072998046875,11278,1,1754.0,1757.0,1724.0,1745.0,1599.0,1752.0,1759.0,1687.0,99.54998779296875,14.83713150024414,71.54561614990234,Left
2489.072998046875,11278,1,1759.0,1761.0,1749.0,1829.0,1385.0,1751.0,1761.0,1719.0,99.54998779296875,14.83713150024414,71.54561614990234,Left
2491.072998046875,11278,1,1759.0,1757.0,1703.0,1751.0,1561.0,1751.0,1759.0,1706.0,99.54998779296875,14.83713150024414,71.54561614990234,Left
2484.882080078125,11279,1,1755.0,1759.0,1746.0,1781.0,1889.0,1751.0,1759.0,1797.0,99.54998779296875,14.83713150024414,71.54561614990234,Left
2486.882080078125,11279,1,1758.0,1759.0,1787.0,1775.0,1789.0,1751.0,1757.0,1798.0,99.28480529785156,13.79765796661377,71.57662200927734,Left
2488.882080078125,11279,1,1755.0,1765.0,1755.0,1983.0,1519.0,1751.0,1763.0,1677.0,99.28480529785156,13.79765796661377,71.57662200927734,Left
2490.882080078125,11279,1,1756.0,1759.0,1765.0,1797.0,1268.0,1751.0,1759.0,1754.0,99.28480529785156,13.79765796661377,71.57662200927734,Left
2492.882080078125,11279,1,1763.0,1757.0,1787.0,1759.0,2153.0,1753.0,1759.0,1771.0,99.28480529785156,13.79765796661377,71.57662200927734,Left
2496.77099609375,11280,1,1759.0,1757.0,1741.0,1829.0,2188.0,1749.0,1758.0,1715.0,99.28480529785156,13.79765796661377,71.57662200927734,Left
2498.77099609375,11280,1,1756.0,1759.0,1727.0,1765.0,1823.0,1752.0,1759.0,1765.0,99.28480529785156,13.79765796661377,71.57662200927734,Left
2500.77099609375,11280,1,1755.0,1758.0,1784.0,1913.0,1351.0,1749.0,1759.0,1723.0,99.28480529785156,13.79765796661377,71.57662200927734,Left
2502.77099609375,11280,1,1756.0,1763.0,1675.0,1611.0,1979.0,1752.0,1755.0,1659.0,99.28480529785156,13.79765796661377,71.57662200927734,Left
2504.77099609375,11280,1,1758.0,1757.0,1717.0,1551.0,2339.0,1749.0,1756.0,1742.0,99.28480529785156,13.79765796661377,71.57662200927734,Left
2511.568115234375,11281,1,1755.0,1757.0,1827.0,1671.0,1959.0,1749.0,1759.0,1831.0,99.28480529785156,13.79765796661377,71.57662200927734,Left
2513.568115234375,11281,1,1759.0,1757.0,1792.0,1662.0,1830.0,1752.0,1763.0,1746.0,99.28480529785156,13.79765796661377,71.57662200927734,Left
2515.568115234375,11281,1,1755.0,1759.0,1735.0,1765.0,1157.0,1751.0,1763.0,1719.0,99.28480529785156,13.79765796661377,71.57662200927734,Left
2517.568115234375,11281,1,1758.0,1757.0,1787.0,1699.0,1876.0,1751.0,1762.0,1822.0,99.28480529785156,13.79765796661377,71.57662200927734,Left
2519.568115234375,11281,1,1757.0,1759.0,1750.0,1739.0,1895.0,1750.0,1762.0,1739.0,99.28480529785156,13.79765796661377,71.57662200927734,Left
2513.106201171875,11282,1,1791.0,1757.0,1753.0,1870.0,2136.0,1751.0,1757.0,1764.0,99.28480529785156,13.79765796661377,71.57662200927734,Left
2515.106201171875,11282,1,1757.0,1759.0,1720.0,1851.0,1685.0,1753.0,1757.0,1701.0,99.28480529785156,13.79765796661377,71.57662200927734,Left
2517.106201171875,11282,1,1757.0,1759.0,1783.0,1779.0,1267.0,1750.0,1757.0,1751.0,99.28480529785156,13.79765796661377,71.57662200927734,Left
2519.106201171875,11282,1,1751.0,1757.0,1765.0,1883.0,1518.0,1751.0,1757.0,1817.0,99.28480529785156,13.79765796661377,71.57662200927734,Left
2521.106201171875,11282,1,1754.0,1768.0,1733.0,1979.0,2462.0,1748.0,1758.0,1741.0,99.28480529785156,13.79765796661377,71.57662200927734,Left
2524.677001953125,11283,1,1750.0,1757.0,1741.0,1939.0,2055.0,1749.0,1759.0,1687.0,99.28480529785156,13.79765796661377,71.57662200927734,Left
2526.677001953125,11283,1,1755.0,1763.0,1723.0,1943.0,1481.0,1749.0,1757.0,1720.0,99.28480529785156,13.79765796661377,71.57662200927734,Left
2528.677001953125,11283,1,1757.0,1763.0,1763.0,1751.0,2008.0,1751.0,1755.0,1825.0,99.28480529785156,13.79765796661377,71.57662200927734,Left
2530.677001953125,11283,1,1757.0,1759.0,1839.0,1687.0,2557.0,1752.0,1759.0,1807.0,99.28480529785156,13.79765796661377,71.57662200927734,Left
2532.677001953125,11283,1,1762.0,1757.0,1815.0,1709.0,1253.0,1751.0,1758.0,1722.0,99.28480529785156,13.79765796661377,71.57662200927734,Left
2538.593017578125,11284,1,1759.0,1757.0,1719.0,1615.0,1967.0,1749.0,1758.0,1689.0,99.28480529785156,13.79765796661377,71.57662200927734,Left
2540.593017578125,11284,1,1755.0,1759.0,1743.0,1686.0,1657.0,1751.0,1762.0,1734.0,99.28480529785156,13.79765796661377,71.57662200927734,Left
2542.593017578125,11284,1,1757.0,1757.0,1727.0,1507.0,1671.0,1748.0,1761.0,1702.0,99.28480529785156,13.79765796661377,71.57662200927734,Left
2544.593017578125,11284,1,1753.0,1761.0,1723.0,1476.0,1827.0,1751.0,1756.0,1736.0,99.28480529785156,13.79765796661377,71.57662200927734,Left
2546.593017578125,11284,1,1754.0,1757.0,1765.0,1511.0,2027.0,1750.0,1757.0,1748.0,99.28480529785156,13.79765796661377,71.57662200927734,Left
2545.928955078125,11285,1,1755.0,1759.0,1703.0,1527.0,941.0,1749.0,1759.0,1715.0,99.28480529785156,13.79765796661377,71.57662200927734,Left
2547.928955078125,11285,1,1757.0,1757.0,1817.0,1635.0,1675.0,1751.0,1750.0,1812.0,99.28480529785156,13.79765796661377,71.57662200927734,Left
2549.928955078125,11285,1,1755.0,1758.0,1749.0,1609.0,1961.0,1751.0,1763.0,1737.0,99.28480529785156,13.79765796661377,71.57662200927734,Left
2551.928955078125,11285,1,1756.0,1763.0,1772.0,1661.0,1897.0,1751.0,1764.0,1761.0,97.86199188232422,21.51850700378418,71.58442687988281,Left
2553.928955078125,11285,1,1756.0,1759.0,1765.0,1790.0,1929.0,1750.0,1762.0,1735.0,97.86199188232422,21.51850700378418,71.58442687988281,Left
2555.140869140625,11286,1,1752.0,1757.0,1683.0,1769.0,1498.0,1752.0,1756.0,1673.0,97.86199188232422,21.51850700378418,71.58442687988281,Left
2557.140869140625,11286,1,1761.0,1759.0,1772.0,1723.0,1003.0,1751.0,1755.0,1851.0,97.86199188232422,21.51850700378418,71.58442687988281,Left
2559.140869140625,11286,1,1756.0,1759.0,1827.0,1831.0,1907.0,1749.0,1756.0,1817.0,97.86199188232422,21.51850700378418,71.58442687988281,Left
2561.140869140625,11286,1,1755.0,1758.0,1781.0,1707.0,2295.0,1751.0,1759.0,1772.0,97.86199188232422,21.51850700378418,71.58442687988281,Left
2563.140869140625,11286,1,1754.0,1757.0,1735.0,1757.0,1947.0,1749.0,1757.0,1715.0,97.86199188232422,21.51850700378418,71.58442687988281,Left
2565.169189453125,11287,1,1756.0,1757.0,1707.0,1768.0,1077.0,1751.0,1759.0,1733.0,97.86199188232422,21.51850700378418,71.58442687988281,Left
2567.169189453125,11287,1,1755.0,1759.0,1765.0,1710.0,1893.0,1751.0,1759.0,1753.0,97.86199188232422,21.51850700378418,71.58442687988281,Left
2569.169189453125,11287,1,1757.0,1758.0,1752.0,1767.0,1449.0,1749.0,1757.0,1715.0,97.86199188232422,21.51850700378418,71.58442687988281,Left
2571.169189453125,11287,1,1759.0,1762.0,1721.0,1775.0,1491.0,1751.0,1762.0,1717.0,97.86199188232422,21.51850700378418,71.58442687988281,Left
2573.169189453125,11287,1,1758.0,1757.0,1747.0,1691.0,1627.0,1752.0,1759.0,1750.0,97.86199188232422,21.51850700378418,71.58442687988281,Left
2574.7900390625,11288,1,1757.0,1761.0,1813.0,1773.0,1636.0,1751.0,1758.0,1771.0,97.86199188232422,21.51850700378418,71.58442687988281,Left
2576.7900390625,11288,1,1755.0,1759.0,1702.0,1762.0,1605.0,1751.0,1757.0,1670.0,97.86199188232422,21.51850700378418,71.58442687988281,Left
2578.7900390625,11288,1,1755.0,1761.0,1801.0,1863.0,2035.0,1750.0,1759.0,1829.0,97.86199188232422,21.51850700378418,71.58442687988281,Left
2580.7900390625,11288,1,1757.0,1759.0,1748.0,1709.0,1619.0,1752.0,1753.0,1724.0,97.86199188232422,21.51850700378418,71.58442687988281,Left
2582.7900390625,11288,1,1757.0,1758.0,1751.0,1773.0,1896.0,1752.0,1759.0,1753.0,97.86199188232422,21.51850700378418,71.58442687988281,Left
2589.236083984375,11289,1,1757.0,1758.0,1791.0,1788.0,2117.0,1750.0,1761.0,1801.0,97.86199188232422,21.51850700378418,71.58442687988281,Left
2591.236083984375,11289,1,1753.0,1763.0,1751.0,1693.0,1663.0,1751.0,1759.0,1749.0,97.86199188232422,21.51850700378418,71.58442687988281,Left
2593.236083984375,11289,1,1757.0,1767.0,1733.0,1641.0,1758.0,1751.0,1759.0,1726.0,97.86199188232422,21.51850700378418,71.58442687988281,Left
2595.236083984375,11289,1,1755.0,1762.0,1755.0,1707.0,1735.0,1751.0,1759.0,1759.0,97.86199188232422,21.51850700378418,71.58442687988281,Left
2597.236083984375,11289,1,1757.0,1759.0,1723.0,1622.0,1385.0,1752.0,1762.0,1739.0,97.86199188232422,21.51850700378418,71.58442687988281,Left
2594.7802734375,11290,1,1757.0,1763.0,1779.0,1725.0,2185.0,1753.0,1757.0,1765.0,97.86199188232422,21.51850700378418,71.58442687988281,Left
2596.7802734375,11290,1,1757.0,1759.0,1787.0,1831.0,1880.0,1751.0,1759.0,1751.0,97.86199188232422,21.51850700378418,71.58442687988281,Left
2598.7802734375,11290,1,1757.0,1759.0,1767.0,1892.0,1875.0,1750.0,1757.0,1727.0,97.86199188232422,21.51850700378418,71.58442687988281,Left
2600.7802734375,11290,1,1757.0,1759.0,1763.0,1817.0,1574.0,1749.0,1759.0,1747.0,97.86199188232422,21.51850700378418,71.58442687988281,Left
2602.7802734375,11290,1,1756.0,1763.0,1749.0,1930.0,1835.0,1751.0,1761.0,1881.0,97.86199188232422,21.51850700378418,71.58442687988281,Left
2604.93115234375,11291,1,1755.0,1759.0,1752.0,2088.0,1919.0,1751.0,1763.0,1725.0,97.86199188232422,21.51850700378418,71.58442687988281,Left
2606.93115234375,11291,1,1753.0,1775.0,1719.0,1951.0,1628.0,1753.0,1758.0,1673.0,97.86199188232422,21.51850700378418,71.58442687988281,Left
2608.93115234375,11291,1,1765.0,1759.0,1707.0,1784.0,923.0,1751.0,1757.0,1772.0,97.86199188232422,21.51850700378418,71.58442687988281,Left
2610.93115234375,11291,1,1757.0,1759.0,1807.0,1673.0,1916.0,1751.0,1757.0,1811.0,97.86199188232422,21.51850700378418,71.58442687988281,Left
2612.93115234375,11291,1,1757.0,1759.0,1779.0,1525.0,1931.0,1749.0,1762.0,1727.0,97.86199188232422,21.51850700378418,71.58442687988281,Left
2614.47998046875,11292,1,1757.0,1757.0,1765.0,1607.0,1641.0,1750.0,1763.0,1716.0,97.86199188232422,21.51850700378418,71.58442687988281,Left
2616.47998046875,11292,1,1757.0,1762.0,1749.0,1471.0,1691.0,1749.0,1759.0,1709.0,96.16055297851562,25.187484741210938,65.63850402832031,Left
2618.47998046875,11292,1,1759.0,1762.0,1773.0,1452.0,1951.0,1749.0,1757.0,1767.0,96.16055297851562,25.187484741210938,65.63850402832031,Left
2620.47998046875,11292,1,1755.0,1757.0,1751.0,1402.0,1654.0,1751.0,1757.0,1775.0,96.16055297851562,25.187484741210938,65.63850402832031,Left
2622.47998046875,11292,1,1759.0,1758.0,1785.0,1447.0,1965.0,1749.0,1758.0,1769.0,96.16055297851562,25.187484741210938,65.63850402832031,Left
2624.929931640625,11293,1,1757.0,1759.0,1752.0,1495.0,901.0,1750.0,1759.0,1687.0,96.16055297851562,25.187484741210938,65.63850402832031,Left
2626.929931640625,11293,1,1755.0,1759.0,1719.0,1448.0,1715.0,1753.0,1759.0,1891.0,96.16055297851562,25.187484741210938,65.63850402832031,Left
2628.929931640625,11293,1,1758.0,1761.0,1767.0,1523.0,2059.0,1751.0,1756.0,1753.0,96.16055297851562,25.187484741210938,65.63850402832031,Left
2630.929931640625,11293,1,1757.0,1758.0,1692.0,1555.0,1847.0,1751.0,1763.0,1702.0,96.16055297851562,25.187484741210938,65.63850402832031,Left
2632.929931640625,11293,1,1757.0,1756.0,1813.0,1652.0,2200.0,1749.0,1759.0,2508.0,96.16055297851562,25.187484741210938,65.63850402832031,Left
2633.415283203125,11294,1,1755.0,1756.0,1734.0,1717.0,1370.0,1746.0,1757.0,1095.0,96.16055297851562,25.187484741210938,65.63850402832031,Left
2635.415283203125,11294,1,1758.0,1762.0,1750.0,1821.0,1663.0,1751.0,1757.0,1019.0,96.16055297851562,25.187484741210938,65.63850402832031,Left
2637.415283203125,11294,1,1757.0,1759.0,1801.0,1913.0,2023.0,1750.0,1759.0,1525.0,96.16055297851562,25.187484741210938,65.63850402832031,Left
2639.415283203125,11294,1,1761.0,1757.0,1780.0,1875.0,2025.0,1749.0,1757.0,2291.0,96.16055297851562,25.187484741210938,65.63850402832031,Left
2641.415283203125,11294,1,1755.0,1757.0,1751.0,2003.0,1241.0,1748.0,1758.0,1939.0,96.16055297851562,25.187484741210938,65.63850402832031,Left
2646.9140625,11295,1,1755.0,1757.0,1706.0,1961.0,1881.0,1749.0,1757.0,1055.0,96.16055297851562,25.187484741210938,65.63850402832031,Left
2648.9140625,11295,1,1755.0,1759.0,1779.0,2007.0,1843.0,1749.0,1759.0,2662.0,96.16055297851562,25.187484741210938,65.63850402832031,Left
2650.9140625,11295,1,1755.0,1754.0,1751.0,2015.0,1775.0,1748.0,1757.0,3659.0,96.16055297851562,25.187484741210938,65.63850402832031,Left
2652.9140625,11295,1,1759.0,1759.0,1773.0,1998.0,1736.0,1751.0,1757.0,3804.0,96.16055297851562,25.187484741210938,65.63850402832031,Left
2654.9140625,11295,1,1758.0,1757.0,1712.0,1932.0,1369.0,1750.0,1757.0,3752.0,96.16055297851562,25.187484741210938,65.63850402832031,Left
2652.4208984375,11296,1,1763.0,1758.0,1789.0,2105.0,1128.0,1749.0,1757.0,3091.0,96.16055297851562,25.187484741210938,65.63850402832031,Left
2654.4208984375,11296,1,1753.0,1757.0,1757.0,1951.0,2143.0,1751.0,1758.0,3795.0,96.16055297851562,25.187484741210938,65.63850402832031,Left
2656.4208984375,11296,1,1757.0,1763.0,1765.0,1833.0,1998.0,1751.0,1756.0,3801.0,96.16055297851562,25.187484741210938,65.63850402832031,Left
2658.4208984375,11296,1,1756.0,1756.0,1747.0,1773.0,1759.0,1749.0,1758.0,0.0,96.16055297851562,25.187484741210938,65.63850402832031,Left
2660.4208984375,11296,1,1757.0,1763.0,1753.0,1707.0,1605.0,1751.0,1759.0,0.0,96.16055297851562,25.187484741210938,65.63850402832031,Left
2666.171142578125,11297,1,1756.0,1759.0,1763.0,1769.0,1836.0,1739.0,1762.0,0.0,96.16055297851562,25.187484741210938,65.63850402832031,Left
2668.171142578125,11297,1,1758.0,1757.0,1710.0,1763.0,1655.0,1751.0,1757.0,425.0,96.16055297851562,25.187484741210938,65.63850402832031,Left
2670.171142578125,11297,1,1757.0,1755.0,1733.0,1772.0,1582.0,1751.0,1758.0,1251.0,96.16055297851562,25.187484741210938,65.63850402832031,Left
2672.171142578125,11297,1,1757.0,1762.0,1801.0,1786.0,2132.0,1749.0,1759.0,1660.0,96.16055297851562,25.187484741210938,65.63850402832031,Left
2674.171142578125,11297,1,1753.0,1757.0,1770.0,1749.0,1861.0,1751.0,1759.0,1847.0,96.16055297851562,25.187484741210938,65.63850402832031,Left
2676.64599609375,11298,1,1769.0,1759.0,1791.0,1691.0,1255.0,1751.0,1758.0,1933.0,96.16055297851562,25.187484741210938,65.63850402832031,Left
2678.64599609375,11298,1,1755.0,1757.0,1752.0,1781.0,1774.0,1751.0,1757.0,1937.0,96.16055297851562,25.187484741210938,65.63850402832031,Left
2680.64599609375,11298,1,1754.0,1757.0,1789.0,1797.0,1849.0,1763.0,1757.0,1946.0,96.16055297851562,25.187484741210938,65.63850402832031,Left
2682.64599609375,11298,1,1758.0,1759.0,1717.0,1807.0,1484.0,1749.0,1757.0,1875.0,111.35479736328125,-5.7716474533081055,75.42941284179688,Left
2684.64599609375,11298,1,1755.0,1757.0,1711.0,1787.0,1995.0,1749.0,1757.0,1801.0,111.35479736328125,-5.7716474533081055,75.42941284179688,Left
2683.8388671875,11299,1,1755.0,1757.0,1786.0,1763.0,1997.0,1749.0,1759.0,1852.0,111.35479736328125,-5.7716474533081055,75.42941284179688,Left
2685.8388671875,11299,1,1755.0,1757.0,1719.0,1639.0,1727.0,1749.0,1759.0,1787.0,111.35479736328125,-5.7716474533081055,75.42941284179688,Left
2687.8388671875,11299,1,1756.0,1767.0,1756.0,1771.0,1617.0,1749.0,1757.0,1819.0,111.35479736328125,-5.7716474533081055,75.42941284179688,Left
2689.8388671875,11299,1,1754.0,1759.0,1751.0,1751.0,1810.0,1751.0,1758.0,1804.0,111.35479736328125,-5.7716474533081055,75.42941284179688,Left
2691.8388671875,11299,1,1757.0,1763.0,1719.0,1715.0,1517.0,1749.0,1759.0,1773.0,111.35479736328125,-5.7716474533081055,75.42941284179688,Left
2693.95703125,11300,1,1753.0,1755.0,1763.0,1748.0,1831.0,1751.0,1757.0,1811.0,111.35479736328125,-5.7716474533081055,75.42941284179688,Left
2695.95703125,11300,1,1755.0,1753.0,1764.0,1866.0,1673.0,1751.0,1757.0,1747.0,111.35479736328125,-5.7716474533081055,75.42941284179688,Left
2697.95703125,11300,1,1755.0,1758.0,1773.0,1748.0,2093.0,1751.0,1759.0,1801.0,111.35479736328125,-5.7716474533081055,75.42941284179688,Left
2699.95703125,11300,1,1757.0,1762.0,1727.0,1817.0,1829.0,1748.0,1759.0,1755.0,111.35479736328125,-5.7716474533081055,75.42941284179688,Left
2701.95703125,11300,1,1757.0,1763.0,1756.0,1671.0,1517.0,1749.0,1755.0,1757.0,111.35479736328125,-5.7716474533081055,75.42941284179688,Left
2711.399169921875,11301,1,1756.0,1757.0,1781.0,1719.0,1735.0,1750.0,1757.0,1762.0,111.35479736328125,-5.7716474533081055,75.42941284179688,Left
2713.399169921875,11301,1,1759.0,1763.0,1763.0,1715.0,1812.0,1751.0,1756.0,1757.0,111.35479736328125,-5.7716474533081055,75.42941284179688,Left
2715.399169921875,11301,1,1755.0,1759.0,1763.0,1767.0,1751.0,1749.0,1761.0,1754.0,111.35479736328125,-5.7716474533081055,75.42941284179688,Left
2717.399169921875,11301,1,1755.0,1763.0,1752.0,1691.0,1528.0,1751.0,1759.0,1748.0,111.35479736328125,-5.7716474533081055,75.42941284179688,Left
2719.399169921875,11301,1,1757.0,1765.0,1759.0,1723.0,1671.0,1750.0,1757.0,1757.0,111.35479736328125,-5.7716474533081055,75.42941284179688,Left
2714.108154296875,11302,1,1757.0,1757.0,1763.0,1736.0,1911.0,1750.0,1758.0,1765.0,111.35479736328125,-5.7716474533081055,75.42941284179688,Left
2716.108154296875,11302,1,1759.0,1758.0,1763.0,1724.0,1737.0,1751.0,1762.0,1759.0,111.35479736328125,-5.7716474533081055,75.42941284179688,Left
2718.108154296875,11302,1,1757.0,1752.0,1742.0,1703.0,1907.0,1748.0,1759.0,1761.0,111.35479736328125,-5.7716474533081055,75.42941284179688,Left
2720.108154296875,11302,1,1755.0,1758.0,1739.0,1783.0,1479.0,1741.0,1759.0,1718.0,111.35479736328125,-5.7716474533081055,75.42941284179688,Left
2722.108154296875,11302,1,1755.0,1756.0,1762.0,1851.0,2079.0,1750.0,1763.0,1766.0,111.35479736328125,-5.7716474533081055,75.42941284179688,Left
2729.210205078125,11303,1,1755.0,1757.0,1768.0,1811.0,1652.0,1748.0,1759.0,1753.0,111.35479736328125,-5.7716474533081055,75.42941284179688,Left
2731.210205078125,11303,1,1755.0,1757.0,1749.0,1815.0,1484.0,1750.0,1759.0,1769.0,111.35479736328125,-5.7716474533081055,75.42941284179688,Left
2733.210205078125,11303,1,1759.0,1759.0,1765.0,1803.0,1722.0,1752.0,1759.0,1767.0,111.35479736328125,-5.7716474533081055,75.42941284179688,Left
2735.210205078125,11303,1,1755.0,1763.0,1741.0,1772.0,1783.0,1750.0,1757.0,1705.0,111.35479736328125,-5.7716474533081055,75.42941284179688,Left
2737.210205078125,11303,1,1757.0,1759.0,1764.0,1682.0,1843.0,1750.0,1757.0,1725.0,111.35479736328125,-5.7716474533081055,75.42941284179688,Left
2735.53515625,11304,1,1757.0,1757.0,1753.0,1739.0,1864.0,1751.0,1759.0,1751.0,111.35479736328125,-5.7716474533081055,75.42941284179688,Left
2737.53515625,11304,1,1756.0,1764.0,1755.0,1773.0,1914.0,1751.0,1757.0,1740.0,111.35479736328125,-5.7716474533081055,75.42941284179688,Left
2739.53515625,11304,1,1757.0,1759.0,1755.0,1789.0,1686.0,1752.0,1757.0,1757.0,111.35479736328125,-5.7716474533081055,75.42941284179688,Left
2741.53515625,11304,1,1757.0,1762.0,1775.0,1767.0,1582.0,1751.0,1759.0,1755.0,111.35479736328125,-5.7716474533081055,75.42941284179688,Left
2743.53515625,11304,1,1757.0,1759.0,1739.0,1715.0,1861.0,1751.0,1758.0,1741.0,111.35479736328125,-5.7716474533081055,75.42941284179688,Left
2746.485107421875,11305,1,1753.0,1757.0,1765.0,1751.0,1619.0,1752.0,1759.0,1739.0,100.75658416748047,-2.8373749256134033,82.03596496582031,Left
2748.485107421875,11305,1,1755.0,1759.0,1753.0,1759.0,1659.0,1751.0,1757.0,1765.0,100.75658416748047,-2.8373749256134033,82.03596496582031,Left
2750.485107421875,11305,1,1756.0,1759.0,1750.0,1690.0,1499.0,1751.0,1758.0,1747.0,100.75658416748047,-2.8373749256134033,82.03596496582031,Left
2752.485107421875,11305,1,1757.0,1761.0,1753.0,1723.0,1885.0,1751.0,1759.0,1769.0,100.75658416748047,-2.8373749256134033,82.03596496582031,Left
2754.485107421875,11305,1,1757.0,1757.0,1737.0,1703.0,1942.0,1749.0,1759.0,1711.0,100.75658416748047,-2.8373749256134033,82.03596496582031,Left
2756.40380859375,11306,1,1755.0,1757.0,1735.0,1747.0,2126.0,1751.0,1757.0,1693.0,100.75658416748047,-2.8373749256134033,82.03596496582031,Left
2758.40380859375,11306,1,1755.0,1762.0,1753.0,1727.0,1486.0,1749.0,1759.0,1759.0,100.75658416748047,-2.8373749256134033,82.03596496582031,Left
2760.40380859375,11306,1,1754.0,1758.0,1765.0,1685.0,1798.0,1752.0,1758.0,1775.0,100.75658416748047,-2.8373749256134033,82.03596496582031,Left
2762.40380859375,11306,1,1755.0,1759.0,1765.0,1579.0,1845.0,1751.0,1759.0,1804.0,100.75658416748047,-2.8373749256134033,82.03596496582031,Left
2764.40380859375,11306,1,1762.0,1757.0,1787.0,1677.0,1871.0,1749.0,1757.0,1775.0,100.75658416748047,-2.8373749256134033,82.03596496582031,Left
2766.0751953125,11307,1,1763.0,1758.0,1774.0,1648.0,1720.0,1749.0,1758.0,1749.0,100.75658416748047,-2.8373749256134033,82.03596496582031,Left
2768.0751953125,11307,1,1758.0,1759.0,1773.0,1671.0,1485.0,1751.0,1757.0,1767.0,100.75658416748047,-2.8373749256134033,82.03596496582031,Left
2770.0751953125,11307,1,1757.0,1757.0,1763.0,1757.0,1693.0,1752.0,1762.0,1711.0,100.75658416748047,-2.8373749256134033,82.03596496582031,Left
2772.0751953125,11307,1,1757.0,1762.0,1749.0,1756.0,1947.0,1750.0,1763.0,1739.0,100.75658416748047,-2.8373749256134033,82.03596496582031,Left
2774.0751953125,11307,1,1758.0,1759.0,1747.0,1823.0,1862.0,1752.0,1759.0,1727.0,100.75658416748047,-2.8373749256134033,82.03596496582031,Left
2774.691162109375,11308,1,1754.0,1759.0,1707.0,1724.0,1588.0,1751.0,1758.0,1724.0,100.75658416748047,-2.8373749256134033,82.03596496582031,Left
2776.691162109375,11308,1,1757.0,1763.0,1759.0,1775.0,1823.0,1751.0,1762.0,1753.0,100.75658416748047,-2.8373749256134033,82.03596496582031,Left
2778.691162109375,11308,1,1757.0,1759.0,1746.0,1765.0,1711.0,1750.0,1759.0,1749.0,100.75658416748047,-2.8373749256134033,82.03596496582031,Left
2780.691162109375,11308,1,1757.0,1759.0,1780.0,1847.0,1878.0,1751.0,1759.0,1754.0,100.75658416748047,-2.8373749256134033,82.03596496582031,Left
2782.691162109375,11308,1,1757.0,1757.0,1761.0,2009.0,1771.0,1752.0,1759.0,1751.0,100.75658416748047,-2.8373749256134033,82.03596496582031,Left
2786.22802734375,11309,1,1751.0,1757.0,1762.0,1980.0,1659.0,1752.0,1759.0,1715.0,100.75658416748047,-2.8373749256134033,82.03596496582031,Left
2788.22802734375,11309,1,1757.0,1765.0,1743.0,1851.0,1851.0,1751.0,1759.0,1784.0,100.75658416748047,-2.8373749256134033,82.03596496582031,Left
2790.22802734375,11309,1,1757.0,1757.0,1763.0,1863.0,1644.0,1750.0,1759.0,1759.0,100.75658416748047,-2.8373749256134033,82.03596496582031,Left
2792.22802734375,11309,1,1757.0,1759.0,1752.0,1735.0,1676.0,1751.0,1757.0,1749.0,100.75658416748047,-2.8373749256134033,82.03596496582031,Left
2794.22802734375,11309,1,1757.0,1758.0,1767.0,1831.0,1797.0,1752.0,1759.0,1748.0,100.75658416748047,-2.8373749256134033,82.03596496582031,Left
2794.321044921875,11310,1,1758.0,1759.0,1757.0,1739.0,1753.0,1751.0,1759.0,1748.0,100.75658416748047,-2.8373749256134033,82.03596496582031,Left
2796.321044921875,11310,1,1755.0,1759.0,1767.0,1733.0,1764.0,1751.0,1759.0,1751.0,100.75658416748047,-2.8373749256134033,82.03596496582031,Left
2798.321044921875,11310,1,1759.0,1757.0,1757.0,1741.0,1759.0,1751.0,1758.0,1747.0,100.75658416748047,-2.8373749256134033,82.03596496582031,Left
2800.321044921875,11310,1,1757.0,1762.0,1750.0,1781.0,1751.0,1749.0,1756.0,1739.0,100.75658416748047,-2.8373749256134033,82.03596496582031,Left
2802.321044921875,11310,1,1756.0,1762.0,1737.0,1837.0,1751.0,1751.0,1761.0,1737.0,100.75658416748047,-2.8373749256134033,82.03596496582031,Left
2804.619140625,11311,1,1755.0,1757.0,1726.0,1850.0,1753.0,1751.0,1763.0,1745.0,100.75658416748047,-2.8373749256134033,82.03596496582031,Left
2806.619140625,11311,1,1757.0,1762.0,1737.0,1752.0,1753.0,1749.0,1756.0,1740.0,100.75658416748047,-2.8373749256134033,82.03596496582031,Left
2808.619140625,11311,1,1740.0,1781.0,1747.0,1779.0,1747.0,1747.0,1761.0,1741.0,100.75658416748047,-2.8373749256134033,82.03596496582031,Left
2810.619140625,11311,1,1758.0,1763.0,1758.0,1781.0,1755.0,1749.0,1759.0,1727.0,95.04434204101562,19.88177490234375,72.16973114013672,Left
2812.619140625,11311,1,1758.0,1763.0,1785.0,1833.0,1757.0,1759.0,1755.0,1764.0,95.04434204101562,19.88177490234375,72.16973114013672,Left
2813.767822265625,11312,1,1752.0,1756.0,1799.0,1738.0,1758.0,1750.0,1763.0,1782.0,95.04434204101562,19.88177490234375,72.16973114013672,Left
2815.767822265625,11312,1,1757.0,1759.0,1783.0,1734.0,1772.0,1752.0,1757.0,1769.0,95.04434204101562,19.88177490234375,72.16973114013672,Left
2817.767822265625,11312,1,1757.0,1764.0,1765.0,1711.0,1735.0,1752.0,1758.0,1754.0,95.04434204101562,19.88177490234375,72.16973114013672,Left
2819.767822265625,11312,1,1758.0,1762.0,1746.0,1763.0,1771.0,1751.0,1759.0,1735.0,95.04434204101562,19.88177490234375,72.16973114013672,Left
2821.767822265625,11312,1,1757.0,1757.0,1742.0,1739.0,1765.0,1751.0,1763.0,1724.0,95.04434204101562,19.88177490234375,72.16973114013672,Left
2825.974853515625,11313,1,1757.0,1759.0,1747.0,1735.0,1768.0,1751.0,1759.0,1747.0,95.04434204101562,19.88177490234375,72.16973114013672,Left
2827.974853515625,11313,1,1747.0,1755.0,1757.0,1701.0,1813.0,1740.0,1757.0,1779.0,95.04434204101562,19.88177490234375,72.16973114013672,Left
2829.974853515625,11313,1,1756.0,1759.0,1769.0,1693.0,1815.0,1752.0,1765.0,1773.0,95.04434204101562,19.88177490234375,72.16973114013672,Left
2831.974853515625,11313,1,1757.0,1763.0,1769.0,1781.0,1759.0,1752.0,1755.0,1783.0,95.04434204101562,19.88177490234375,72.16973114013672,Left
2833.974853515625,11313,1,1758.0,1756.0,1753.0,1765.0,1763.0,1752.0,1759.0,1745.0,95.04434204101562,19.88177490234375,72.16973114013672,Left
2837.597900390625,11314,1,1755.0,1757.0,1765.0,1773.0,1724.0,1751.0,1759.0,1727.0,95.04434204101562,19.88177490234375,72.16973114013672,Left
2839.597900390625,11314,1,1757.0,1757.0,1755.0,1853.0,1855.0,1750.0,1759.0,1727.0,95.04434204101562,19.88177490234375,72.16973114013672,Left
2841.597900390625,11314,1,1756.0,1756.0,1723.0,1850.0,1675.0,1751.0,1755.0,1709.0,95.04434204101562,19.88177490234375,72.16973114013672,Left
2843.597900390625,11314,1,1772.0,1757.0,1743.0,1852.0,1919.0,1752.0,1759.0,1739.0,95.04434204101562,19.88177490234375,72.16973114013672,Left
2845.597900390625,11314,1,1755.0,1788.0,1767.0,1780.0,1707.0,1750.0,1757.0,1741.0,95.04434204101562,19.88177490234375,72.16973114013672,Left
2846.76611328125,11315,1,1757.0,1759.0,1757.0,1775.0,1580.0,1763.0,1763.0,1741.0,95.04434204101562,19.88177490234375,72.16973114013672,Left
2848.76611328125,11315,1,1751.0,1757.0,1771.0,1863.0,2341.0,1752.0,1759.0,1764.0,95.04434204101562,19.88177490234375,72.16973114013672,Left
2850.76611328125,11315,1,1757.0,1757.0,1759.0,1763.0,1477.0,1751.0,1757.0,1755.0,95.04434204101562,19.88177490234375,72.16973114013672,Left
2852.76611328125,11315,1,1757.0,1758.0,1754.0,1735.0,1677.0,1749.0,1758.0,1750.0,95.04434204101562,19.88177490234375,72.16973114013672,Left
2854.76611328125,11315,1,1757.0,1759.0,1741.0,1733.0,1881.0,1750.0,1756.0,1737.0,95.04434204101562,19.88177490234375,72.16973114013672,Left
2863.08984375,11316,1,1751.0,1767.0,1741.0,1705.0,1613.0,1750.0,1757.0,1755.0,95.04434204101562,19.88177490234375,72.16973114013672,Left
2865.08984375,11316,1,1756.0,1758.0,1779.0,1651.0,1799.0,1752.0,1755.0,1753.0,95.04434204101562,19.88177490234375,72.16973114013672,Left
2867.08984375,11316,1,1755.0,1759.0,1757.0,1673.0,1685.0,1757.0,1759.0,1738.0,95.04434204101562,19.88177490234375,72.16973114013672,Left
2869.08984375,11316,1,1755.0,1759.0,1759.0,1719.0,1850.0,1749.0,1758.0,1747.0,95.04434204101562,19.88177490234375,72.16973114013672,Left
2871.08984375,11316,1,1756.0,1779.0,1753.0,1816.0,1685.0,1749.0,1758.0,1751.0,95.04434204101562,19.88177490234375,72.16973114013672,Left
2863.656982421875,11317,1,1756.0,1759.0,1758.0,1724.0,1741.0,1750.0,1761.0,1749.0,95.04434204101562,19.88177490234375,72.16973114013672,Left
2865.656982421875,11317,1,1755.0,1750.0,1747.0,1805.0,1737.0,1751.0,1757.0,1740.0,95.04434204101562,19.88177490234375,72.16973114013672,Left
2867.656982421875,11317,1,1738.0,1759.0,1749.0,1819.0,1717.0,1751.0,1762.0,1736.0,95.04434204101562,19.88177490234375,72.16973114013672,Left
2869.656982421875,11317,1,1755.0,1763.0,1716.0,1893.0,1749.0,1751.0,1759.0,1737.0,95.04434204101562,19.88177490234375,72.16973114013672,Left
2871.656982421875,11317,1,1759.0,1762.0,1727.0,1913.0,1733.0,1752.0,1763.0,1746.0,95.04434204101562,19.88177490234375,72.16973114013672,Left
2876.912109375,11318,1,1756.0,1753.0,1703.0,1813.0,1739.0,1751.0,1761.0,1727.0,95.77361297607422,27.836713790893555,81.79290771484375,Left
2878.912109375,11318,1,1756.0,1759.0,1736.0,1756.0,1737.0,1750.0,1757.0,1737.0,95.77361297607422,27.836713790893555,81.79290771484375,Left
2880.912109375,11318,1,1757.0,1757.0,1803.0,1735.0,1735.0,1751.0,1759.0,1757.0,95.77361297607422,27.836713790893555,81.79290771484375,Left
2882.912109375,11318,1,1755.0,1757.0,1805.0,1651.0,1740.0,1749.0,1757.0,1759.0,95.77361297607422,27.836713790893555,81.79290771484375,Left
2884.912109375,11318,1,1759.0,1763.0,1817.0,1642.0,1734.0,1750.0,1759.0,1757.0,95.77361297607422,27.836713790893555,81.79290771484375,Left
2884.182861328125,11319,1,1757.0,1759.0,1849.0,1771.0,1745.0,1751.0,1759.0,1772.0,95.77361297607422,27.836713790893555,81.79290771484375,Left
2886.182861328125,11319,1,1757.0,1764.0,1783.0,1759.0,1753.0,1752.0,1757.0,1755.0,95.77361297607422,27.836713790893555,81.79290771484375,Left
2888.182861328125,11319,1,1757.0,1759.0,1717.0,1735.0,1739.0,1751.0,1757.0,1727.0,95.77361297607422,27.836713790893555,81.79290771484375,Left
2890.182861328125,11319,1,1757.0,1762.0,1765.0,1694.0,1749.0,1751.0,1765.0,1749.0,95.77361297607422,27.836713790893555,81.79290771484375,Left
2892.182861328125,11319,1,1757.0,1763.0,1611.0,1790.0,1745.0,1751.0,1762.0,1757.0,95.77361297607422,27.836713790893555,81.79290771484375,Left
2895.411865234375,11320,1,1759.0,1758.0,1739.0,1817.0,1740.0,1751.0,1762.0,1748.0,95.77361297607422,27.836713790893555,81.79290771484375,Left
2897.411865234375,11320,1,1757.0,1762.0,1898.0,1741.0,1741.0,1749.0,1763.0,1797.0,95.77361297607422,27.836713790893555,81.79290771484375,Left
2899.411865234375,11320,1,1756.0,1758.0,1917.0,1775.0,1751.0,1750.0,1759.0,1775.0,95.77361297607422,27.836713790893555,81.79290771484375,Left
2901.411865234375,11320,1,1757.0,1757.0,1709.0,1775.0,1748.0,1751.0,1763.0,1751.0,95.77361297607422,27.836713790893555,81.79290771484375,Left
2903.411865234375,11320,1,1757.0,1762.0,1463.0,1866.0,1749.0,1751.0,1757.0,1707.0,95.77361297607422,27.836713790893555,81.79290771484375,Left
2904.682861328125,11321,1,1756.0,1762.0,1656.0,1717.0,1763.0,1740.0,1756.0,1733.0,95.77361297607422,27.836713790893555,81.79290771484375,Left
2906.682861328125,11321,1,1756.0,1757.0,1813.0,1676.0,1747.0,1751.0,1758.0,1723.0,95.77361297607422,27.836713790893555,81.79290771484375,Left
2908.682861328125,11321,1,1759.0,1763.0,1897.0,1686.0,1753.0,1750.0,1763.0,1766.0,95.77361297607422,27.836713790893555,81.79290771484375,Left
2910.682861328125,11321,1,1758.0,1757.0,1833.0,1721.0,1753.0,1750.0,1757.0,1749.0,95.77361297607422,27.836713790893555,81.79290771484375,Left
2912.682861328125,11321,1,1755.0,1763.0,1788.0,1717.0,1759.0,1752.0,1757.0,1771.0,95.77361297607422,27.836713790893555,81.79290771484375,Left
2914.10498046875,11322,1,1749.0,1763.0,1715.0,1771.0,1769.0,1751.0,1758.0,1763.0,95.77361297607422,27.836713790893555,81.79290771484375,Left
2916.10498046875,11322,1,1757.0,1757.0,1749.0,1836.0,1763.0,1749.0,1759.0,1733.0,95.77361297607422,27.836713790893555,81.79290771484375,Left
2918.10498046875,11322,1,1753.0,1762.0,1767.0,1798.0,1767.0,1739.0,1765.0,1739.0,95.77361297607422,27.836713790893555,81.79290771484375,Left
2920.10498046875,11322,1,1753.0,1758.0,1740.0,1797.0,1780.0,1751.0,1759.0,1727.0,95.77361297607422,27.836713790893555,81.79290771484375,Left
2922.10498046875,11322,1,1757.0,1759.0,1661.0,1684.0,1779.0,1747.0,1756.0,1721.0,95.77361297607422,27.836713790893555,81.79290771484375,Left
2924.221923828125,11323,1,1756.0,1756.0,1734.0,1768.0,1775.0,1751.0,1757.0,1751.0,95.77361297607422,27.836713790893555,81.79290771484375,Left
2926.221923828125,11323,1,1759.0,1757.0,1775.0,1815.0,1773.0,1750.0,1757.0,1775.0,95.77361297607422,27.836713790893555,81.79290771484375,Left
2928.221923828125,11323,1,1751.0,1759.0,1789.0,1699.0,1769.0,1749.0,1757.0,1767.0,95.77361297607422,27.836713790893555,81.79290771484375,Left
2930.221923828125,11323,1,1757.0,1759.0,1775.0,1723.0,1773.0,1752.0,1759.0,1753.0,95.77361297607422,27.836713790893555,81.79290771484375,Left
2932.221923828125,11323,1,1755.0,1758.0,1773.0,1704.0,1764.0,1739.0,1763.0,1755.0,95.77361297607422,27.836713790893555,81.79290771484375,Left
2936.759033203125,11324,1,1757.0,1757.0,1779.0,1683.0,1751.0,1749.0,1757.0,1751.0,95.77361297607422,27.836713790893555,81.79290771484375,Left
2938.759033203125,11324,1,1757.0,1759.0,1733.0,1629.0,1765.0,1751.0,1758.0,1715.0,95.77361297607422,27.836713790893555,81.79290771484375,Left
2940.759033203125,11324,1,1757.0,1759.0,1723.0,1589.0,1723.0,1751.0,1758.0,1717.0,102.77972412109375,27.591676712036133,86.17364501953125,Left
2942.759033203125,11324,1,1757.0,1758.0,1721.0,1594.0,1720.0,1751.0,1757.0,1737.0,102.77972412109375,27.591676712036133,86.17364501953125,Left
2944.759033203125,11324,1,1759.0,1757.0,1725.0,1711.0,1749.0,1751.0,1758.0,1749.0,102.77972412109375,27.591676712036133,86.17364501953125,Left
2949.1259765625,11325,1,1757.0,1757.0,1764.0,1645.0,1742.0,1750.0,1759.0,1746.0,102.77972412109375,27.591676712036133,86.17364501953125,Left
2951.1259765625,11325,1,1759.0,1754.0,1755.0,1685.0,1738.0,1757.0,1758.0,1752.0,102.77972412109375,27.591676712036133,86.17364501953125,Left
2953.1259765625,11325,1,1758.0,1757.0,1780.0,1691.0,1751.0,1751.0,1757.0,1755.0,102.77972412109375,27.591676712036133,86.17364501953125,Left
2955.1259765625,11325,1,1756.0,1757.0,1756.0,1766.0,1738.0,1751.0,1758.0,1755.0,102.77972412109375,27.591676712036133,86.17364501953125,Left
2957.1259765625,11325,1,1757.0,1757.0,1772.0,1861.0,1736.0,1752.0,1757.0,1751.0,102.77972412109375,27.591676712036133,86.17364501953125,Left
2955.683837890625,11326,1,1757.0,1759.0,1781.0,1975.0,1749.0,1752.0,1757.0,1763.0,102.77972412109375,27.591676712036133,86.17364501953125,Left
2957.683837890625,11326,1,1756.0,1757.0,1783.0,1917.0,1745.0,1752.0,1757.0,1747.0,102.77972412109375,27.591676712036133,86.17364501953125,Left
2959.683837890625,11326,1,1759.0,1759.0,1763.0,1976.0,1721.0,1750.0,1762.0,1743.0,102.77972412109375,27.591676712036133,86.17364501953125,Left
2961.683837890625,11326,1,1747.0,1757.0,1736.0,1945.0,1753.0,1751.0,1759.0,1734.0,102.77972412109375,27.591676712036133,86.17364501953125,Left
2963.683837890625,11326,1,1755.0,1759.0,1720.0,1903.0,1737.0,1750.0,1759.0,1725.0,102.77972412109375,27.591676712036133,86.17364501953125,Left
2990.078857421875,11327,1,1755.0,1756.0,1747.0,1805.0,1717.0,1741.0,1763.0,1747.0,102.77972412109375,27.591676712036133,86.17364501953125,Left
2992.078857421875,11327,1,1759.0,1755.0,1755.0,1791.0,1899.0,1751.0,1759.0,1749.0,102.77972412109375,27.591676712036133,86.17364501953125,Left
2994.078857421875,11327,1,1757.0,1761.0,1775.0,1765.0,1903.0,1751.0,1758.0,1770.0,102.77972412109375,27.591676712036133,86.17364501953125,Left
2996.078857421875,11327,1,1756.0,1763.0,1767.0,1853.0,1391.0,1751.0,1759.0,1765.0,102.77972412109375,27.591676712036133,86.17364501953125,Left
2998.078857421875,11327,1,1756.0,1758.0,1765.0,1829.0,1693.0,1751.0,1759.0,1751.0,102.77972412109375,27.591676712036133,86.17364501953125,Left
2990.7119140625,11328,1,1775.0,1755.0,1763.0,1809.0,1672.0,1749.0,1763.0,1762.0,102.77972412109375,27.591676712036133,86.17364501953125,Left
2992.7119140625,11328,1,1755.0,1758.0,1756.0,1764.0,1747.0,1751.0,1757.0,1755.0,102.77972412109375,27.591676712036133,86.17364501953125,Left
2994.7119140625,11328,1,1757.0,1758.0,1770.0,1704.0,1769.0,1739.0,1759.0,1781.0,102.77972412109375,27.591676712036133,86.17364501953125,Left
2996.7119140625,11328,1,1755.0,1758.0,1769.0,1742.0,1753.0,1751.0,1757.0,1747.0,102.77972412109375,27.591676712036133,86.17364501953125,Left
2998.7119140625,11328,1,1757.0,1757.0,1741.0,1672.0,1769.0,1753.0,1757.0,1723.0,102.77972412109375,27.591676712036133,86.17364501953125,Left
2991.068115234375,11329,1,1755.0,1749.0,1737.0,1687.0,1768.0,1749.0,1757.0,1733.0,102.77972412109375,27.591676712036133,86.17364501953125,Left
2993.068115234375,11329,1,1756.0,1758.0,1726.0,1701.0,1774.0,1750.0,1756.0,1721.0,102.77972412109375,27.591676712036133,86.17364501953125,Left
2995.068115234375,11329,1,1739.0,1761.0,1742.0,1624.0,1786.0,1751.0,1759.0,1723.0,102.77972412109375,27.591676712036133,86.17364501953125,Left
2997.068115234375,11329,1,1755.0,1759.0,1757.0,1683.0,1726.0,1752.0,1762.0,1726.0,102.77972412109375,27.591676712036133,86.17364501953125,Left
2999.068115234375,11329,1,1757.0,1762.0,1737.0,1702.0,1743.0,1740.0,1757.0,1757.0,102.77972412109375,27.591676712036133,86.17364501953125,Left
2997.317138671875,11330,1,1754.0,1758.0,1755.0,1693.0,1747.0,1747.0,1755.0,1775.0,102.77972412109375,27.591676712036133,86.17364501953125,Left
2999.317138671875,11330,1,1753.0,1757.0,1767.0,1705.0,1748.0,1749.0,1759.0,1727.0,102.77972412109375,27.591676712036133,86.17364501953125,Left
3001.317138671875,11330,1,1757.0,1763.0,1769.0,1708.0,1763.0,1750.0,1756.0,1737.0,102.77972412109375,27.591676712036133,86.17364501953125,Left
3003.317138671875,11330,1,1755.0,1757.0,1783.0,1672.0,1884.0,1752.0,1758.0,1749.0,102.77972412109375,27.591676712036133,86.17364501953125,Left
3005.317138671875,11330,1,1759.0,1758.0,1781.0,1769.0,1551.0,1751.0,1757.0,1763.0,102.77972412109375,27.591676712036133,86.17364501953125,Left
3012.8720703125,11331,1,1755.0,1759.0,1770.0,1838.0,1779.0,1749.0,1758.0,1781.0,107.47413635253906,16.73252296447754,85.24103546142578,Left
3014.8720703125,11331,1,1755.0,1766.0,1745.0,1817.0,1811.0,1752.0,1759.0,1737.0,107.47413635253906,16.73252296447754,85.24103546142578,Left
3016.8720703125,11331,1,1757.0,1759.0,1758.0,1837.0,1727.0,1752.0,1763.0,1747.0,107.47413635253906,16.73252296447754,85.24103546142578,Left
3018.8720703125,11331,1,1758.0,1759.0,1763.0,2015.0,1910.0,1752.0,1765.0,1733.0,107.47413635253906,16.73252296447754,85.24103546142578,Left
3020.8720703125,11331,1,1757.0,1759.0,1707.0,1919.0,1413.0,1749.0,1759.0,1721.0,107.47413635253906,16.73252296447754,85.24103546142578,Left
3016.8330078125,11332,1,1757.0,1761.0,1757.0,1849.0,1800.0,1751.0,1759.0,1773.0,107.47413635253906,16.73252296447754,85.24103546142578,Left
3018.8330078125,11332,1,1759.0,1756.0,1773.0,1880.0,1983.0,1749.0,1758.0,1759.0,107.47413635253906,16.73252296447754,85.24103546142578,Left
3020.8330078125,11332,1,1757.0,1759.0,1735.0,1877.0,1365.0,1749.0,1755.0,1736.0,107.47413635253906,16.73252296447754,85.24103546142578,Left
3022.8330078125,11332,1,1787.0,1766.0,1765.0,1815.0,1639.0,1751.0,1759.0,1771.0,107.47413635253906,16.73252296447754,85.24103546142578,Left
3024.8330078125,11332,1,1755.0,1759.0,1741.0,1767.0,1692.0,1751.0,1752.0,1763.0,107.47413635253906,16.73252296447754,85.24103546142578,Left
3024.580078125,11333,1,1759.0,1759.0,1784.0,1822.0,2183.0,1749.0,1763.0,1741.0,107.47413635253906,16.73252296447754,85.24103546142578,Left
3026.580078125,11333,1,1753.0,1757.0,1769.0,1919.0,1866.0,1751.0,1763.0,1751.0,107.47413635253906,16.73252296447754,85.24103546142578,Left
3028.580078125,11333,1,1755.0,1759.0,1735.0,1822.0,1510.0,1752.0,1757.0,1767.0,107.47413635253906,16.73252296447754,85.24103546142578,Left
3030.580078125,11333,1,1757.0,1759.0,1749.0,1807.0,1375.0,1752.0,1758.0,1721.0,107.47413635253906,16.73252296447754,85.24103546142578,Left
3032.580078125,11333,1,1757.0,1773.0,1717.0,1813.0,1385.0,1751.0,1757.0,1712.0,107.47413635253906,16.73252296447754,85.24103546142578,Left
3038.072998046875,11334,1,1740.0,1761.0,1779.0,1770.0,1895.0,1750.0,1759.0,1773.0,107.47413635253906,16.73252296447754,85.24103546142578,Left
3040.072998046875,11334,1,1757.0,1757.0,1753.0,1715.0,1840.0,1751.0,1763.0,1738.0,107.47413635253906,16.73252296447754,85.24103546142578,Left
3042.072998046875,11334,1,1757.0,1763.0,1763.0,1705.0,1891.0,1755.0,1759.0,1799.0,107.47413635253906,16.73252296447754,85.24103546142578,Left
3044.072998046875,11334,1,1756.0,1778.0,1782.0,1687.0,1332.0,1751.0,1759.0,1738.0,107.47413635253906,16.73252296447754,85.24103546142578,Left
3046.072998046875,11334,1,1754.0,1757.0,1737.0,1663.0,2375.0,1751.0,1758.0,1720.0,107.47413635253906,16.73252296447754,85.24103546142578,Left
3046.114013671875,11335,1,1753.0,1761.0,1787.0,1805.0,2458.0,1750.0,1759.0,1747.0,107.47413635253906,16.73252296447754,85.24103546142578,Left
3048.114013671875,11335,1,1743.0,1767.0,1719.0,1741.0,568.0,1752.0,1759.0,1706.0,107.47413635253906,16.73252296447754,85.24103546142578,Left
3050.114013671875,11335,1,1739.0,1759.0,1803.0,1708.0,1955.0,1751.0,1759.0,1765.0,107.47413635253906,16.73252296447754,85.24103546142578,Left
3052.114013671875,11335,1,1757.0,1759.0,1728.0,1675.0,1949.0,1751.0,1761.0,1652.0,107.47413635253906,16.73252296447754,85.24103546142578,Left
3054.114013671875,11335,1,1756.0,1735.0,1751.0,1592.0,2091.0,1759.0,1764.0,1817.0,107.47413635253906,16.73252296447754,85.24103546142578,Left
3062.093017578125,11336,1,1755.0,1757.0,1789.0,1627.0,2329.0,1751.0,1759.0,1811.0,107.47413635253906,16.73252296447754,85.24103546142578,Left
3064.093017578125,11336,1,1758.0,1758.0,1695.0,1589.0,751.0,1749.0,1762.0,1621.0,107.47413635253906,16.73252296447754,85.24103546142578,Left
3066.093017578125,11336,1,1754.0,1763.0,1769.0,1735.0,1352.0,1751.0,1757.0,1791.0,107.47413635253906,16.73252296447754,85.24103546142578,Left
3068.093017578125,11336,1,1756.0,1757.0,1780.0,1684.0,2073.0,1751.0,1759.0,1756.0,107.47413635253906,16.73252296447754,85.24103546142578,Left
3070.093017578125,11336,1,1763.0,1758.0,1711.0,1573.0,1800.0,1752.0,1763.0,1740.0,107.47413635253906,16.73252296447754,85.24103546142578,Left
3066.43994140625,11337,1,1757.0,1757.0,1786.0,1639.0,1877.0,1751.0,1755.0,1787.0,107.47413635253906,16.73252296447754,85.24103546142578,Left
3068.43994140625,11337,1,1757.0,1758.0,1755.0,1671.0,1684.0,1754.0,1757.0,1673.0,107.47413635253906,16.73252296447754,85.24103546142578,Left
3070.43994140625,11337,1,1755.0,1757.0,1703.0,1671.0,2238.0,1752.0,1751.0,1719.0,107.47413635253906,16.73252296447754,85.24103546142578,Left
3072.43994140625,11337,1,1753.0,1759.0,1773.0,1533.0,1577.0,1752.0,1756.0,1812.0,107.47413635253906,16.73252296447754,85.24103546142578,Left
3074.43994140625,11337,1,1757.0,1757.0,1782.0,1559.0,2065.0,1753.0,1759.0,1773.0,107.47413635253906,16.73252296447754,85.24103546142578,Left
3076.10009765625,11338,1,1747.0,1757.0,1739.0,1817.0,1298.0,1751.0,1757.0,1716.0,107.47413635253906,16.73252296447754,85.24103546142578,Left
3078.10009765625,11338,1,1749.0,1761.0,1751.0,1781.0,1829.0,1751.0,1757.0,1821.0,104.43531036376953,7.9651336669921875,81.0904312133789,Left
3080.10009765625,11338,1,1765.0,1759.0,1801.0,1801.0,1647.0,1751.0,1762.0,1741.0,104.43531036376953,7.9651336669921875,81.0904312133789,Left
3082.10009765625,11338,1,1751.0,1755.0,1751.0,1691.0,1813.0,1751.0,1758.0,1741.0,104.43531036376953,7.9651336669921875,81.0904312133789,Left
3084.10009765625,11338,1,1756.0,1758.0,1755.0,1833.0,2170.0,1751.0,1762.0,1725.0,104.43531036376953,7.9651336669921875,81.0904312133789,Left
3086.43603515625,11339,1,1757.0,1757.0,1716.0,1949.0,1738.0,1752.0,1755.0,1759.0,104.43531036376953,7.9651336669921875,81.0904312133789,Left
3088.43603515625,11339,1,1751.0,1758.0,1723.0,1771.0,1610.0,1747.0,1759.0,1768.0,104.43531036376953,7.9651336669921875,81.0904312133789,Left
3090.43603515625,11339,1,1754.0,1759.0,1788.0,1848.0,1822.0,1751.0,1758.0,1747.0,104.43531036376953,7.9651336669921875,81.0904312133789,Left
3092.43603515625,11339,1,1759.0,1762.0,1733.0,1717.0,1813.0,1751.0,1763.0,1735.0,104.43531036376953,7.9651336669921875,81.0904312133789,Left
3094.43603515625,11339,1,1757.0,1774.0,1805.0,1741.0,1962.0,1751.0,1756.0,1774.0,104.43531036376953,7.9651336669921875,81.0904312133789,Left
3093.211181640625,11340,1,1747.0,1768.0,1765.0,1752.0,1371.0,1749.0,1757.0,1774.0,104.43531036376953,7.9651336669921875,81.0904312133789,Left
3095.211181640625,11340,1,1755.0,1755.0,1781.0,1741.0,1519.0,1746.0,1758.0,1747.0,104.43531036376953,7.9651336669921875,81.0904312133789,Left
3097.211181640625,11340,1,1751.0,1757.0,1725.0,1835.0,2125.0,1759.0,1757.0,1749.0,104.43531036376953,7.9651336669921875,81.0904312133789,Left
3099.211181640625,11340,1,1757.0,1759.0,1741.0,1687.0,1677.0,1752.0,1756.0,1753.0,104.43531036376953,7.9651336669921875,81.0904312133789,Left
3101.211181640625,11340,1,1758.0,1771.0,1699.0,1787.0,1876.0,1751.0,1759.0,1687.0,104.43531036376953,7.9651336669921875,81.0904312133789,Left
3109.04296875,11341,1,1754.0,1757.0,1819.0,1764.0,1335.0,1751.0,1757.0,1791.0,104.43531036376953,7.9651336669921875,81.0904312133789,Left
3111.04296875,11341,1,1756.0,1747.0,1791.0,1791.0,1948.0,1751.0,1757.0,1758.0,104.43531036376953,7.9651336669921875,81.0904312133789,Left
3113.04296875,11341,1,1751.0,1757.0,1727.0,1735.0,2280.0,1750.0,1757.0,1737.0,104.43531036376953,7.9651336669921875,81.0904312133789,Left
3115.04296875,11341,1,1755.0,1763.0,1806.0,1753.0,1171.0,1752.0,1763.0,1717.0,104.43531036376953,7.9651336669921875,81.0904312133789,Left
3117.04296875,11341,1,1758.0,1757.0,1704.0,1767.0,1587.0,1747.0,1755.0,1757.0,104.43531036376953,7.9651336669921875,81.0904312133789,Left
3114.523193359375,11342,1,1759.0,1763.0,1753.0,1843.0,1272.0,1750.0,1758.0,1733.0,104.43531036376953,7.9651336669921875,81.0904312133789,Left
3116.523193359375,11342,1,1762.0,1762.0,1803.0,1799.0,2093.0,1749.0,1763.0,1773.0,104.43531036376953,7.9651336669921875,81.0904312133789,Left
3118.523193359375,11342,1,1755.0,1759.0,1727.0,1715.0,2153.0,1751.0,1756.0,1693.0,104.43531036376953,7.9651336669921875,81.0904312133789,Left
3120.523193359375,11342,1,1753.0,1761.0,1699.0,1739.0,1976.0,1751.0,1749.0,1700.0,104.43531036376953,7.9651336669921875,81.0904312133789,Left
3122.523193359375,11342,1,1758.0,1727.0,1743.0,1739.0,1305.0,1749.0,1755.0,1830.0,104.43531036376953,7.9651336669921875,81.0904312133789,Left
3127.032958984375,11343,1,1757.0,1757.0,1717.0,1721.0,1748.0,1750.0,1762.0,1683.0,104.43531036376953,7.9651336669921875,81.0904312133789,Left
3129.032958984375,11343,1,1768.0,1763.0,1749.0,1721.0,1466.0,1749.0,1759.0,1742.0,104.43531036376953,7.9651336669921875,81.0904312133789,Left
3131.032958984375,11343,1,1757.0,1762.0,1764.0,1805.0,1437.0,1751.0,1757.0,1765.0,104.43531036376953,7.9651336669921875,81.0904312133789,Left
3133.032958984375,11343,1,1757.0,1759.0,1771.0,1757.0,2041.0,1751.0,1763.0,1725.0,104.43531036376953,7.9651336669921875,81.0904312133789,Left
3135.032958984375,11343,1,1755.0,1759.0,1810.0,1829.0,1891.0,1749.0,1759.0,1813.0,104.43531036376953,7.9651336669921875,81.0904312133789,Left
3138.47705078125,11344,1,1752.0,1756.0,1788.0,1928.0,1903.0,1749.0,1763.0,1717.0,104.43531036376953,7.9651336669921875,81.0904312133789,Left
3140.47705078125,11344,1,1757.0,1759.0,1753.0,1972.0,2127.0,1749.0,1757.0,1747.0,104.43531036376953,7.9651336669921875,81.0904312133789,Left
3142.47705078125,11344,1,1758.0,1758.0,1711.0,1931.0,927.0,1751.0,1757.0,1783.0,104.43531036376953,7.9651336669921875,81.0904312133789,Left
3144.47705078125,11344,1,1781.0,1759.0,1828.0,1839.0,2149.0,1751.0,1758.0,1819.0,94.82061004638672,10.636752128601074,71.83528137207031,Left
3146.47705078125,11344,1,1755.0,1758.0,1742.0,1909.0,1384.0,1751.0,1759.0,1723.0,94.82061004638672,10.636752128601074,71.83528137207031,Left
3145.760986328125,11345,1,1756.0,1755.0,1735.0,1733.0,1995.0,1748.0,1763.0,1751.0,94.82061004638672,10.636752128601074,71.83528137207031,Left
3147.760986328125,11345,1,1755.0,1758.0,1688.0,1719.0,1715.0,1749.0,1759.0,1705.0,94.82061004638672,10.636752128601074,71.83528137207031,Left
3149.760986328125,11345,1,1755.0,1758.0,1747.0,1688.0,2019.0,1751.0,1761.0,1748.0,94.82061004638672,10.636752128601074,71.83528137207031,Left
3151.760986328125,11345,1,1759.0,1763.0,1789.0,1709.0,1463.0,1752.0,1757.0,1768.0,94.82061004638672,10.636752128601074,71.83528137207031,Left
3153.760986328125,11345,1,1757.0,1761.0,1782.0,1746.0,2189.0,1749.0,1763.0,1765.0,94.82061004638672,10.636752128601074,71.83528137207031,Left
3164.932861328125,11346,1,1749.0,1763.0,1725.0,1639.0,1704.0,1751.0,1757.0,1696.0,94.82061004638672,10.636752128601074,71.83528137207031,Left
3166.932861328125,11346,1,1756.0,1758.0,1723.0,1671.0,1591.0,1750.0,1759.0,1799.0,94.82061004638672,10.636752128601074,71.83528137207031,Left
3168.932861328125,11346,1,1757.0,1757.0,1753.0,1561.0,1357.0,1743.0,1755.0,1725.0,94.82061004638672,10.636752128601074,71.83528137207031,Left
3170.932861328125,11346,1,1755.0,1759.0,1810.0,1707.0,1720.0,1747.0,1758.0,1773.0,94.82061004638672,10.636752128601074,71.83528137207031,Left
3172.932861328125,11346,1,1755.0,1759.0,1773.0,1676.0,1735.0,1751.0,1757.0,1757.0,94.82061004638672,10.636752128601074,71.83528137207031,Left
3165.76513671875,11347,1,1755.0,1758.0,1735.0,1717.0,1801.0,1749.0,1759.0,1687.0,94.82061004638672,10.636752128601074,71.83528137207031,Left
3167.76513671875,11347,1,1755.0,1758.0,1782.0,1803.0,2367.0,1751.0,1759.0,1801.0,94.82061004638672,10.636752128601074,71.83528137207031,Left
3169.76513671875,11347,1,1769.0,1762.0,1721.0,1743.0,1543.0,1751.0,1762.0,1763.0,94.82061004638672,10.636752128601074,71.83528137207031,Left
3171.76513671875,11347,1,1758.0,1758.0,1798.0,1717.0,1772.0,1751.0,1759.0,1769.0,94.82061004638672,10.636752128601074,71.83528137207031,Left
3173.76513671875,11347,1,1756.0,1764.0,1792.0,1779.0,1860.0,1761.0,1759.0,1790.0,94.82061004638672,10.636752128601074,71.83528137207031,Left
3175.178955078125,11348,1,1755.0,1758.0,1703.0,1747.0,1134.0,1746.0,1759.0,1694.0,94.82061004638672,10.636752128601074,71.83528137207031,Left
3177.178955078125,11348,1,1759.0,1757.0,1718.0,1815.0,1973.0,1751.0,1757.0,1739.0,94.82061004638672,10.636752128601074,71.83528137207031,Left
3179.178955078125,11348,1,1756.0,1762.0,1737.0,1807.0,1909.0,1749.0,1763.0,1739.0,94.82061004638672,10.636752128601074,71.83528137207031,Left
3181.178955078125,11348,1,1757.0,1758.0,1767.0,1833.0,1914.0,1750.0,1763.0,1708.0,94.82061004638672,10.636752128601074,71.83528137207031,Left
3183.178955078125,11348,1,1756.0,1763.0,1773.0,1935.0,1903.0,1751.0,1762.0,1749.0,94.82061004638672,10.636752128601074,71.83528137207031,Left
3187.18798828125,11349,1,1752.0,1757.0,1720.0,1906.0,1674.0,1750.0,1756.0,1718.0,94.82061004638672,10.636752128601074,71.83528137207031,Left
3189.18798828125,11349,1,1756.0,1767.0,1783.0,1855.0,1647.0,1745.0,1763.0,1847.0,94.82061004638672,10.636752128601074,71.83528137207031,Left
3191.18798828125,11349,1,1757.0,1759.0,1769.0,1821.0,1683.0,1752.0,1764.0,1712.0,94.82061004638672,10.636752128601074,71.83528137207031,Left
3193.18798828125,11349,1,1755.0,1761.0,1739.0,1708.0,1237.0,1753.0,1763.0,1740.0,94.82061004638672,10.636752128601074,71.83528137207031,Left
3195.18798828125,11349,1,1761.0,1761.0,1769.0,1737.0,2170.0,1750.0,1758.0,1755.0,94.82061004638672,10.636752128601074,71.83528137207031,Left
3195.06103515625,11350,1,1757.0,1758.0,1769.0,1692.0,1573.0,1752.0,1759.0,1751.0,94.82061004638672,10.636752128601074,71.83528137207031,Left
3197.06103515625,11350,1,1761.0,1759.0,1762.0,1745.0,1755.0,1748.0,1759.0,1735.0,94.82061004638672,10.636752128601074,71.83528137207031,Left
3199.06103515625,11350,1,1755.0,1757.0,1766.0,1787.0,1901.0,1749.0,1763.0,1737.0,94.82061004638672,10.636752128601074,71.83528137207031,Left
3201.06103515625,11350,1,1779.0,1764.0,1716.0,1861.0,2018.0,1749.0,1757.0,1710.0,94.82061004638672,10.636752128601074,71.83528137207031,Left
3203.06103515625,11350,1,1755.0,1727.0,1724.0,1862.0,1252.0,1751.0,1759.0,1715.0,94.82061004638672,10.636752128601074,71.83528137207031,Left
3204.582275390625,11351,1,1759.0,1757.0,1716.0,1767.0,1623.0,1749.0,1762.0,1765.0,98.5137939453125,6.878739356994629,76.60943603515625,Left
3206.582275390625,11351,1,1758.0,1757.0,1798.0,1706.0,2268.0,1749.0,1758.0,1815.0,98.5137939453125,6.878739356994629,76.60943603515625,Left
3208.582275390625,11351,1,1757.0,1763.0,1767.0,1811.0,2133.0,1751.0,1759.0,1705.0,98.5137939453125,6.878739356994629,76.60943603515625,Left
3210.582275390625,11351,1,1756.0,1760.0,1721.0,1763.0,995.0,1752.0,1759.0,1787.0,98.5137939453125,6.878739356994629,76.60943603515625,Left
3212.582275390625,11351,1,1757.0,1759.0,1800.0,1790.0,1850.0,1749.0,1762.0,1769.0,98.5137939453125,6.878739356994629,76.60943603515625,Left
3213.775146484375,11352,1,1786.0,1763.0,1748.0,1827.0,1193.0,1751.0,1761.0,1736.0,98.5137939453125,6.878739356994629,76.60943603515625,Left
3215.775146484375,11352,1,1755.0,1762.0,1740.0,1725.0,2345.0,1751.0,1759.0,1734.0,98.5137939453125,6.878739356994629,76.60943603515625,Left
3217.775146484375,11352,1,1759.0,1759.0,1727.0,1663.0,1597.0,1755.0,1765.0,1737.0,98.5137939453125,6.878739356994629,76.60943603515625,Left
3219.775146484375,11352,1,1757.0,1757.0,1755.0,1669.0,2087.0,1751.0,1759.0,1800.0,98.5137939453125,6.878739356994629,76.60943603515625,Left
3221.775146484375,11352,1,1758.0,1758.0,1723.0,1704.0,1870.0,1749.0,1757.0,1726.0,98.5137939453125,6.878739356994629,76.60943603515625,Left
3228.2421875,11353,1,1759.0,1757.0,1735.0,1643.0,1761.0,1752.0,1757.0,1740.0,98.5137939453125,6.878739356994629,76.60943603515625,Left
3230.2421875,11353,1,1757.0,1759.0,1739.0,1741.0,1595.0,1749.0,1763.0,1736.0,98.5137939453125,6.878739356994629,76.60943603515625,Left
3232.2421875,11353,1,1758.0,1763.0,1787.0,1722.0,1881.0,1751.0,1763.0,1767.0,98.5137939453125,6.878739356994629,76.60943603515625,Left
3234.2421875,11353,1,1755.0,1759.0,1769.0,1589.0,1821.0,1751.0,1763.0,1699.0,98.5137939453125,6.878739356994629,76.60943603515625,Left
3236.2421875,11353,1,1759.0,1763.0,1775.0,1674.0,2045.0,1761.0,1765.0,1821.0,98.5137939453125,6.878739356994629,76.60943603515625,Left
3238.1298828125,11354,1,1755.0,1759.0,1695.0,1719.0,1641.0,1751.0,1757.0,1705.0,98.5137939453125,6.878739356994629,76.60943603515625,Left
3240.1298828125,11354,1,1753.0,1762.0,1783.0,1736.0,1903.0,1749.0,1761.0,1754.0,98.5137939453125,6.878739356994629,76.60943603515625,Left
3242.1298828125,11354,1,1759.0,1759.0,1751.0,1725.0,1085.0,1752.0,1761.0,1799.0,98.5137939453125,6.878739356994629,76.60943603515625,Left
3244.1298828125,11354,1,1755.0,1759.0,1804.0,1643.0,1919.0,1751.0,1761.0,1804.0,98.5137939453125,6.878739356994629,76.60943603515625,Left
3246.1298828125,11354,1,1757.0,1757.0,1747.0,1723.0,2193.0,1751.0,1758.0,1709.0,98.5137939453125,6.878739356994629,76.60943603515625,Left
3245.64697265625,11355,1,1756.0,1758.0,1765.0,1880.0,1717.0,1751.0,1763.0,1710.0,98.5137939453125,6.878739356994629,76.60943603515625,Left
3247.64697265625,11355,1,1781.0,1756.0,1743.0,1773.0,1971.0,1751.0,1756.0,1783.0,98.5137939453125,6.878739356994629,76.60943603515625,Left
3249.64697265625,11355,1,1763.0,1759.0,1703.0,1789.0,2029.0,1752.0,1757.0,1693.0,98.5137939453125,6.878739356994629,76.60943603515625,Left
3251.64697265625,11355,1,1757.0,1757.0,1764.0,1629.0,1704.0,1751.0,1763.0,1785.0,98.5137939453125,6.878739356994629,76.60943603515625,Left
3253.64697265625,11355,1,1759.0,1755.0,1771.0,1642.0,1689.0,1752.0,1759.0,1736.0,98.5137939453125,6.878739356994629,76.60943603515625,Left
3256.434814453125,11356,1,1751.0,1755.0,1741.0,1695.0,1755.0,1749.0,1755.0,1727.0,98.5137939453125,6.878739356994629,76.60943603515625,Left
3258.434814453125,11356,1,1757.0,1757.0,1767.0,1699.0,1849.0,1749.0,1763.0,1723.0,98.5137939453125,6.878739356994629,76.60943603515625,Left
3260.434814453125,11356,1,1755.0,1757.0,1751.0,1755.0,1743.0,1749.0,1758.0,1741.0,98.5137939453125,6.878739356994629,76.60943603515625,Left
3262.434814453125,11356,1,1738.0,1753.0,1757.0,1701.0,1948.0,1751.0,1763.0,1779.0,98.5137939453125,6.878739356994629,76.60943603515625,Left
3264.434814453125,11356,1,1758.0,1758.0,1753.0,1635.0,1742.0,1753.0,1757.0,1741.0,98.5137939453125,6.878739356994629,76.60943603515625,Left
3265.711181640625,11357,1,1757.0,1759.0,1797.0,1695.0,1527.0,1751.0,1767.0,1776.0,98.5137939453125,6.878739356994629,76.60943603515625,Left
3267.711181640625,11357,1,1757.0,1754.0,1773.0,1764.0,1855.0,1751.0,1759.0,1737.0,98.5137939453125,6.878739356994629,76.60943603515625,Left
3269.711181640625,11357,1,1757.0,1763.0,1720.0,1909.0,1599.0,1751.0,1763.0,1709.0,99.41914367675781,15.691628456115723,87.38976287841797,Left
3271.711181640625,11357,1,1757.0,1763.0,1764.0,1827.0,1775.0,1750.0,1756.0,1738.0,99.41914367675781,15.691628456115723,87.38976287841797,Left
3273.711181640625,11357,1,1759.0,1763.0,1771.0,1813.0,1711.0,1751.0,1757.0,1741.0,99.41914367675781,15.691628456115723,87.38976287841797,Left
3273.649169921875,11358,1,1775.0,1753.0,1765.0,1862.0,1669.0,1749.0,1757.0,1737.0,99.41914367675781,15.691628456115723,87.38976287841797,Left
3275.649169921875,11358,1,1755.0,1764.0,1704.0,1784.0,2104.0,1752.0,1759.0,1756.0,99.41914367675781,15.691628456115723,87.38976287841797,Left
3277.649169921875,11358,1,1757.0,1763.0,1739.0,1780.0,2107.0,1752.0,1757.0,1769.0,99.41914367675781,15.691628456115723,87.38976287841797,Left
3279.649169921875,11358,1,1757.0,1758.0,1749.0,1884.0,1704.0,1751.0,1758.0,1747.0,99.41914367675781,15.691628456115723,87.38976287841797,Left
3281.649169921875,11358,1,1755.0,1758.0,1767.0,1815.0,1753.0,1749.0,1758.0,1706.0,99.41914367675781,15.691628456115723,87.38976287841797,Left
3291.285888671875,11359,1,1758.0,1757.0,1757.0,1742.0,1609.0,1751.0,1759.0,1775.0,99.41914367675781,15.691628456115723,87.38976287841797,Left
3293.285888671875,11359,1,1759.0,1757.0,1789.0,1774.0,1939.0,1751.0,1756.0,1785.0,99.41914367675781,15.691628456115723,87.38976287841797,Left
3295.285888671875,11359,1,1753.0,1753.0,1747.0,1655.0,1893.0,1751.0,1757.0,1739.0,99.41914367675781,15.691628456115723,87.38976287841797,Left
3297.285888671875,11359,1,1757.0,1757.0,1785.0,1688.0,1775.0,1751.0,1762.0,1767.0,99.41914367675781,15.691628456115723,87.38976287841797,Left
3299.285888671875,11359,1,1755.0,1757.0,1759.0,1685.0,1709.0,1763.0,1763.0,1703.0,99.41914367675781,15.691628456115723,87.38976287841797,Left
3294.552001953125,11360,1,1757.0,1761.0,1722.0,1631.0,1836.0,1753.0,1756.0,1735.0,99.41914367675781,15.691628456115723,87.38976287841797,Left
3296.552001953125,11360,1,1759.0,1758.0,1772.0,1595.0,1829.0,1749.0,1759.0,1787.0,99.41914367675781,15.691628456115723,87.38976287841797,Left
3298.552001953125,11360,1,1757.0,1774.0,1728.0,1645.0,1527.0,1750.0,1757.0,1759.0,99.41914367675781,15.691628456115723,87.38976287841797,Left
3300.552001953125,11360,1,1757.0,1759.0,1741.0,1767.0,1880.0,1751.0,1758.0,1750.0,99.41914367675781,15.691628456115723,87.38976287841797,Left
3302.552001953125,11360,1,1759.0,1761.0,1757.0,1816.0,1827.0,1751.0,1759.0,1737.0,99.41914367675781,15.691628456115723,87.38976287841797,Left
3304.985107421875,11361,1,1752.0,1761.0,1741.0,1824.0,1965.0,1750.0,1759.0,1715.0,99.41914367675781,15.691628456115723,87.38976287841797,Left
3306.985107421875,11361,1,1757.0,1753.0,1741.0,1903.0,1895.0,1750.0,1755.0,1727.0,99.41914367675781,15.691628456115723,87.38976287841797,Left
3308.985107421875,11361,1,1757.0,1758.0,1756.0,1821.0,1321.0,1749.0,1757.0,1763.0,99.41914367675781,15.691628456115723,87.38976287841797,Left
3310.985107421875,11361,1,1755.0,1761.0,1772.0,1761.0,1903.0,1749.0,1756.0,1807.0,99.41914367675781,15.691628456115723,87.38976287841797,Left
3312.985107421875,11361,1,1754.0,1757.0,1783.0,1683.0,1767.0,1751.0,1765.0,1733.0,99.41914367675781,15.691628456115723,87.38976287841797,Left
3313.929931640625,11362,1,1756.0,1757.0,1737.0,1759.0,1573.0,1751.0,1755.0,1739.0,99.41914367675781,15.691628456115723,87.38976287841797,Left
3315.929931640625,11362,1,1756.0,1759.0,1771.0,1719.0,1787.0,1752.0,1757.0,1736.0,99.41914367675781,15.691628456115723,87.38976287841797,Left
3317.929931640625,11362,1,1756.0,1763.0,1775.0,1699.0,1527.0,1752.0,1764.0,1759.0,99.41914367675781,15.691628456115723,87.38976287841797,Left
3319.929931640625,11362,1,1749.0,1751.0,1743.0,1656.0,1823.0,1751.0,1757.0,1739.0,99.41914367675781,15.691628456115723,87.38976287841797,Left
3321.929931640625,11362,1,1759.0,1762.0,1736.0,1706.0,1753.0,1751.0,1763.0,1725.0,99.41914367675781,15.691628456115723,87.38976287841797,Left
3324.81591796875,11363,1,1754.0,1759.0,1733.0,1726.0,1997.0,1764.0,1766.0,1703.0,99.41914367675781,15.691628456115723,87.38976287841797,Left
3326.81591796875,11363,1,1755.0,1761.0,1747.0,1745.0,1510.0,1749.0,1759.0,1749.0,99.41914367675781,15.691628456115723,87.38976287841797,Left
3328.81591796875,11363,1,1755.0,1757.0,1749.0,1783.0,2003.0,1751.0,1758.0,1751.0,99.41914367675781,15.691628456115723,87.38976287841797,Left
3330.81591796875,11363,1,1757.0,1758.0,1782.0,1809.0,1565.0,1749.0,1755.0,1755.0,99.41914367675781,15.691628456115723,87.38976287841797,Left
3332.81591796875,11363,1,1755.0,1763.0,1765.0,1815.0,1899.0,1752.0,1762.0,1723.0,101.55927276611328,26.910837173461914,85.92362213134766,Left
3337.958984375,11364,1,1753.0,1753.0,1772.0,1839.0,1509.0,1749.0,1763.0,1805.0,101.55927276611328,26.910837173461914,85.92362213134766,Left
3339.958984375,11364,1,1757.0,1758.0,1783.0,1726.0,1742.0,1750.0,1761.0,1788.0,101.55927276611328,26.910837173461914,85.92362213134766,Left
3341.958984375,11364,1,1755.0,1757.0,1746.0,1764.0,1672.0,1738.0,1758.0,1747.0,101.55927276611328,26.910837173461914,85.92362213134766,Left
3343.958984375,11364,1,1759.0,1759.0,1763.0,1880.0,1819.0,1751.0,1759.0,1740.0,101.55927276611328,26.910837173461914,85.92362213134766,Left
3345.958984375,11364,1,1755.0,1759.0,1757.0,1893.0,1403.0,1749.0,1761.0,1741.0,101.55927276611328,26.910837173461914,85.92362213134766,Left
3345.866943359375,11365,1,1756.0,1757.0,1743.0,1810.0,1927.0,1750.0,1759.0,1735.0,101.55927276611328,26.910837173461914,85.92362213134766,Left
3347.866943359375,11365,1,1754.0,1759.0,1772.0,1871.0,1967.0,1749.0,1758.0,1741.0,101.55927276611328,26.910837173461914,85.92362213134766,Left
3349.866943359375,11365,1,1741.0,1753.0,1721.0,1877.0,1375.0,1751.0,1759.0,1695.0,101.55927276611328,26.910837173461914,85.92362213134766,Left
3351.866943359375,11365,1,1759.0,1763.0,1723.0,1835.0,1709.0,1751.0,1758.0,1717.0,101.55927276611328,26.910837173461914,85.92362213134766,Left
3353.866943359375,11365,1,1755.0,1764.0,1763.0,1691.0,2057.0,1759.0,1759.0,1779.0,101.55927276611328,26.910837173461914,85.92362213134766,Left
3354.781005859375,11366,1,1756.0,1755.0,1743.0,1887.0,1844.0,1750.0,1761.0,1749.0,101.55927276611328,26.910837173461914,85.92362213134766,Left
3356.781005859375,11366,1,1757.0,1759.0,1763.0,1739.0,1785.0,1751.0,1757.0,1740.0,101.55927276611328,26.910837173461914,85.92362213134766,Left
3358.781005859375,11366,1,1757.0,1761.0,1771.0,1723.0,1592.0,1751.0,1759.0,1739.0,101.55927276611328,26.910837173461914,85.92362213134766,Left
3360.781005859375,11366,1,1757.0,1759.0,1756.0,1689.0,1623.0,1751.0,1759.0,1725.0,101.55927276611328,26.910837173461914,85.92362213134766,Left
3362.781005859375,11366,1,1754.0,1757.0,1749.0,1679.0,1943.0,1750.0,1757.0,1751.0,101.55927276611328,26.910837173461914,85.92362213134766,Left
3368.156982421875,11367,1,1757.0,1759.0,1756.0,1711.0,1977.0,1749.0,1759.0,1754.0,101.55927276611328,26.910837173461914,85.92362213134766,Left
3370.156982421875,11367,1,1757.0,1755.0,1789.0,1756.0,1709.0,1747.0,1758.0,1763.0,101.55927276611328,26.910837173461914,85.92362213134766,Left
3372.156982421875,11367,1,1755.0,1757.0,1785.0,1687.0,1651.0,1749.0,1758.0,1747.0,101.55927276611328,26.910837173461914,85.92362213134766,Left
3374.156982421875,11367,1,1755.0,1758.0,1771.0,1749.0,1617.0,1749.0,1758.0,1747.0,101.55927276611328,26.910837173461914,85.92362213134766,Left
3376.156982421875,11367,1,1759.0,1735.0,1765.0,1739.0,1927.0,1751.0,1759.0,1752.0,101.55927276611328,26.910837173461914,85.92362213134766,Left
3374.52880859375,11368,1,1756.0,1763.0,1735.0,1640.0,1845.0,1750.0,1761.0,1747.0,101.55927276611328,26.910837173461914,85.92362213134766,Left
3376.52880859375,11368,1,1756.0,1752.0,1739.0,1653.0,1565.0,1743.0,1755.0,1705.0,101.55927276611328,26.910837173461914,85.92362213134766,Left
3378.52880859375,11368,1,1755.0,1759.0,1753.0,1771.0,1828.0,1752.0,1758.0,1751.0,101.55927276611328,26.910837173461914,85.92362213134766,Left
3380.52880859375,11368,1,1741.0,1757.0,1755.0,1824.0,1855.0,1751.0,1759.0,1743.0,101.55927276611328,26.910837173461914,85.92362213134766,Left
3382.52880859375,11368,1,1757.0,1759.0,1739.0,1801.0,1926.0,1751.0,1757.0,1752.0,101.55927276611328,26.910837173461914,85.92362213134766,Left
3393.4951171875,11369,1,1756.0,1757.0,1779.0,1779.0,1798.0,1747.0,1767.0,1766.0,101.55927276611328,26.910837173461914,85.92362213134766,Left
3395.4951171875,11369,1,1755.0,1758.0,1752.0,1893.0,1351.0,1751.0,1763.0,1715.0,101.55927276611328,26.910837173461914,85.92362213134766,Left
3397.4951171875,11369,1,1753.0,1758.0,1764.0,1739.0,1970.0,1751.0,1757.0,1768.0,101.55927276611328,26.910837173461914,85.92362213134766,Left
3399.4951171875,11369,1,1757.0,1759.0,1785.0,1805.0,1671.0,1751.0,1759.0,1784.0,101.55927276611328,26.910837173461914,85.92362213134766,Left
3401.4951171875,11369,1,1755.0,1759.0,1741.0,1723.0,1655.0,1749.0,1759.0,1715.0,101.55927276611328,26.910837173461914,85.92362213134766,Left
3394.11181640625,11370,1,1735.0,1767.0,1741.0,1735.0,1755.0,1749.0,1759.0,1722.0,101.55927276611328,26.910837173461914,85.92362213134766,Left
3396.11181640625,11370,1,1757.0,1762.0,1723.0,1833.0,1621.0,1752.0,1759.0,1749.0,101.55927276611328,26.910837173461914,85.92362213134766,Left
3398.11181640625,11370,1,1756.0,1762.0,1787.0,1848.0,1656.0,1739.0,1757.0,1779.0,103.30284118652344,23.502180099487305,89.85967254638672,Left
3400.11181640625,11370,1,1759.0,1757.0,1753.0,1891.0,1673.0,1750.0,1757.0,1736.0,103.30284118652344,23.502180099487305,89.85967254638672,Left
3402.11181640625,11370,1,1753.0,1757.0,1767.0,1789.0,1640.0,1749.0,1759.0,1735.0,103.30284118652344,23.502180099487305,89.85967254638672,Left
3405.97509765625,11371,1,1755.0,1759.0,1749.0,1721.0,1563.0,1750.0,1759.0,1752.0,103.30284118652344,23.502180099487305,89.85967254638672,Left
3407.97509765625,11371,1,1757.0,1763.0,1712.0,1741.0,2067.0,1749.0,1757.0,1689.0,103.30284118652344,23.502180099487305,89.85967254638672,Left
3409.97509765625,11371,1,1783.0,1759.0,1736.0,1762.0,2137.0,1750.0,1759.0,1747.0,103.30284118652344,23.502180099487305,89.85967254638672,Left
3411.97509765625,11371,1,1758.0,1757.0,1759.0,1716.0,1275.0,1751.0,1757.0,1747.0,103.30284118652344,23.502180099487305,89.85967254638672,Left
3413.97509765625,11371,1,1755.0,1759.0,1768.0,1637.0,1853.0,1765.0,1757.0,1765.0,103.30284118652344,23.502180099487305,89.85967254638672,Left
3414.863037109375,11372,1,1757.0,1759.0,1768.0,1791.0,1975.0,1747.0,1758.0,1759.0,103.30284118652344,23.502180099487305,89.85967254638672,Left
3416.863037109375,11372,1,1757.0,1758.0,1771.0,1709.0,1735.0,1751.0,1759.0,1727.0,103.30284118652344,23.502180099487305,89.85967254638672,Left
3418.863037109375,11372,1,1758.0,1761.0,1755.0,1717.0,1637.0,1751.0,1762.0,1775.0,103.30284118652344,23.502180099487305,89.85967254638672,Left
3420.863037109375,11372,1,1756.0,1757.0,1781.0,1803.0,1807.0,1751.0,1756.0,1741.0,103.30284118652344,23.502180099487305,89.85967254638672,Left
3422.863037109375,11372,1,1762.0,1757.0,1717.0,1879.0,1727.0,1749.0,1757.0,1703.0,103.30284118652344,23.502180099487305,89.85967254638672,Left
3424.595947265625,11373,1,1756.0,1758.0,1771.0,1885.0,1909.0,1751.0,1761.0,1803.0,103.30284118652344,23.502180099487305,89.85967254638672,Left
3426.595947265625,11373,1,1757.0,1755.0,1783.0,1759.0,1507.0,1749.0,1757.0,1734.0,103.30284118652344,23.502180099487305,89.85967254638672,Left
3428.595947265625,11373,1,1755.0,1757.0,1742.0,1818.0,2087.0,1748.0,1758.0,1721.0,103.30284118652344,23.502180099487305,89.85967254638672,Left
3430.595947265625,11373,1,1754.0,1758.0,1790.0,1767.0,1833.0,1751.0,1762.0,1759.0,103.30284118652344,23.502180099487305,89.85967254638672,Left
3432.595947265625,11373,1,1762.0,1759.0,1743.0,1676.0,1592.0,1751.0,1757.0,1775.0,103.30284118652344,23.502180099487305,89.85967254638672,Left
3434.68408203125,11374,1,1757.0,1757.0,1783.0,1721.0,1784.0,1749.0,1758.0,1769.0,103.30284118652344,23.502180099487305,89.85967254638672,Left
3436.68408203125,11374,1,1756.0,1759.0,1743.0,1766.0,1448.0,1749.0,1757.0,1755.0,103.30284118652344,23.502180099487305,89.85967254638672,Left
3438.68408203125,11374,1,1759.0,1757.0,1747.0,1843.0,2031.0,1749.0,1757.0,1751.0,103.30284118652344,23.502180099487305,89.85967254638672,Left
3440.68408203125,11374,1,1775.0,1751.0,1767.0,1869.0,1811.0,1751.0,1759.0,1748.0,103.30284118652344,23.502180099487305,89.85967254638672,Left
3442.68408203125,11374,1,1758.0,1759.0,1753.0,1877.0,2063.0,1748.0,1758.0,1735.0,103.30284118652344,23.502180099487305,89.85967254638672,Left
3454.556884765625,11375,1,1757.0,1757.0,1721.0,1789.0,1449.0,1751.0,1758.0,1721.0,103.30284118652344,23.502180099487305,89.85967254638672,Left
3456.556884765625,11375,1,1756.0,1763.0,1675.0,1608.0,1832.0,1751.0,1757.0,1701.0,103.30284118652344,23.502180099487305,89.85967254638672,Left
3458.556884765625,11375,1,1755.0,1759.0,1723.0,1727.0,1754.0,1751.0,1763.0,1736.0,103.30284118652344,23.502180099487305,89.85967254638672,Left
3460.556884765625,11375,1,1756.0,1762.0,1768.0,1702.0,1623.0,1751.0,1759.0,1751.0,103.30284118652344,23.502180099487305,89.85967254638672,Left
3462.556884765625,11375,1,1756.0,1763.0,1787.0,1711.0,1787.0,1753.0,1763.0,1735.0,103.30284118652344,23.502180099487305,89.85967254638672,Left
3455.296142578125,11376,1,1755.0,1761.0,1749.0,1639.0,1655.0,1749.0,1758.0,1751.0,103.30284118652344,23.502180099487305,89.85967254638672,Left
3457.296142578125,11376,1,1758.0,1757.0,1786.0,1617.0,1491.0,1749.0,1757.0,1789.0,103.30284118652344,23.502180099487305,89.85967254638672,Left
3459.296142578125,11376,1,1757.0,1759.0,1779.0,1683.0,1911.0,1751.0,1761.0,1769.0,103.30284118652344,23.502180099487305,89.85967254638672,Left
3461.296142578125,11376,1,1758.0,1759.0,1765.0,1692.0,1883.0,1748.0,1758.0,1739.0,103.30284118652344,23.502180099487305,89.85967254638672,Left
3463.296142578125,11376,1,1755.0,1758.0,1759.0,1708.0,1221.0,1751.0,1762.0,1751.0,102.27489471435547,15.80162239074707,85.19129180908203,Left
3466.217041015625,11377,1,1763.0,1759.0,1773.0,1855.0,1817.0,1750.0,1762.0,1721.0,102.27489471435547,15.80162239074707,85.19129180908203,Left
3468.217041015625,11377,1,1757.0,1763.0,1737.0,1771.0,1771.0,1751.0,1759.0,1753.0,102.27489471435547,15.80162239074707,85.19129180908203,Left
3470.217041015625,11377,1,1757.0,1758.0,1753.0,1811.0,1877.0,1750.0,1757.0,1738.0,102.27489471435547,15.80162239074707,85.19129180908203,Left
3472.217041015625,11377,1,1756.0,1756.0,1679.0,1761.0,1549.0,1750.0,1756.0,1727.0,102.27489471435547,15.80162239074707,85.19129180908203,Left
3474.217041015625,11377,1,1758.0,1759.0,1770.0,1751.0,1915.0,1752.0,1757.0,1759.0,102.27489471435547,15.80162239074707,85.19129180908203,Left
3475.025146484375,11378,1,1756.0,1757.0,1752.0,1715.0,1661.0,1751.0,1755.0,1739.0,102.27489471435547,15.80162239074707,85.19129180908203,Left
3477.025146484375,11378,1,1755.0,1791.0,1763.0,1781.0,1828.0,1748.0,1759.0,1751.0,102.27489471435547,15.80162239074707,85.19129180908203,Left
3479.025146484375,11378,1,1755.0,1759.0,1787.0,1836.0,1705.0,1749.0,1761.0,1757.0,102.27489471435547,15.80162239074707,85.19129180908203,Left
3481.025146484375,11378,1,1757.0,1757.0,1751.0,1661.0,1741.0,1750.0,1762.0,1725.0,102.27489471435547,15.80162239074707,85.19129180908203,Left
3483.025146484375,11378,1,1755.0,1759.0,1741.0,1743.0,1863.0,1751.0,1757.0,1747.0,102.27489471435547,15.80162239074707,85.19129180908203,Left
3489.18798828125,11379,1,1755.0,1757.0,1757.0,1739.0,1445.0,1750.0,1758.0,1737.0,102.27489471435547,15.80162239074707,85.19129180908203,Left
3491.18798828125,11379,1,1757.0,1759.0,1751.0,1772.0,1766.0,1749.0,1761.0,1751.0,102.27489471435547,15.80162239074707,85.19129180908203,Left
3493.18798828125,11379,1,1759.0,1759.0,1764.0,1746.0,1663.0,1750.0,1757.0,1735.0,102.27489471435547,15.80162239074707,85.19129180908203,Left
3495.18798828125,11379,1,1759.0,1761.0,1751.0,1743.0,1976.0,1751.0,1763.0,1737.0,102.27489471435547,15.80162239074707,85.19129180908203,Left
3497.18798828125,11379,1,1757.0,1757.0,1780.0,1784.0,1919.0,1751.0,1757.0,1752.0,102.27489471435547,15.80162239074707,85.19129180908203,Left
3495.301025390625,11380,1,1755.0,1759.0,1763.0,1641.0,1733.0,1751.0,1757.0,1766.0,102.27489471435547,15.80162239074707,85.19129180908203,Left
3497.301025390625,11380,1,1755.0,1758.0,1771.0,1643.0,1853.0,1749.0,1757.0,1775.0,102.27489471435547,15.80162239074707,85.19129180908203,Left
3499.301025390625,11380,1,1755.0,1757.0,1757.0,1709.0,1618.0,1751.0,1757.0,1757.0,102.27489471435547,15.80162239074707,85.19129180908203,Left
3501.301025390625,11380,1,1758.0,1757.0,1727.0,1801.0,1716.0,1749.0,1757.0,1701.0,102.27489471435547,15.80162239074707,85.19129180908203,Left
3503.301025390625,11380,1,1754.0,1758.0,1768.0,1845.0,2126.0,1749.0,1763.0,1750.0,102.27489471435547,15.80162239074707,85.19129180908203,Left
3505.571044921875,11381,1,1753.0,1762.0,1747.0,1753.0,1509.0,1741.0,1751.0,1719.0,102.27489471435547,15.80162239074707,85.19129180908203,Left
3507.571044921875,11381,1,1757.0,1759.0,1776.0,1691.0,1451.0,1752.0,1753.0,1764.0,102.27489471435547,15.80162239074707,85.19129180908203,Left
3509.571044921875,11381,1,1755.0,1759.0,1767.0,1723.0,1771.0,1749.0,1759.0,1726.0,102.27489471435547,15.80162239074707,85.19129180908203,Left
3511.571044921875,11381,1,1759.0,1759.0,1757.0,1740.0,1827.0,1752.0,1759.0,1750.0,102.27489471435547,15.80162239074707,85.19129180908203,Left
3513.571044921875,11381,1,1757.0,1763.0,1695.0,1746.0,2084.0,1751.0,1759.0,1670.0,102.27489471435547,15.80162239074707,85.19129180908203,Left
3517.98291015625,11382,1,1755.0,1759.0,1755.0,1753.0,1437.0,1752.0,1757.0,1779.0,102.27489471435547,15.80162239074707,85.19129180908203,Left
3519.98291015625,11382,1,1758.0,1763.0,1785.0,1739.0,2027.0,1752.0,1759.0,1802.0,102.27489471435547,15.80162239074707,85.19129180908203,Left
3521.98291015625,11382,1,1756.0,1757.0,1799.0,1724.0,1608.0,1751.0,1757.0,1779.0,102.27489471435547,15.80162239074707,85.19129180908203,Left
3523.98291015625,11382,1,1755.0,1758.0,1755.0,1783.0,1997.0,1750.0,1759.0,1738.0,102.27489471435547,15.80162239074707,85.19129180908203,Left
3525.98291015625,11382,1,1757.0,1758.0,1753.0,1789.0,1833.0,1752.0,1763.0,1753.0,102.27489471435547,15.80162239074707,85.19129180908203,Left
3528.32421875,11383,1,1755.0,1762.0,1743.0,1607.0,1571.0,1752.0,1763.0,1720.0,102.27489471435547,15.80162239074707,85.19129180908203,Left
3530.32421875,11383,1,1759.0,1759.0,1768.0,1705.0,1849.0,1751.0,1757.0,1751.0,102.27489471435547,15.80162239074707,85.19129180908203,Left
3532.32421875,11383,1,1758.0,1759.0,1747.0,1817.0,1805.0,1749.0,1761.0,1787.0,102.27489471435547,15.80162239074707,85.19129180908203,Left
3534.32421875,11383,1,1756.0,1759.0,1763.0,1863.0,1805.0,1751.0,1759.0,1702.0,102.27489471435547,15.80162239074707,85.19129180908203,Left
3536.32421875,11383,1,1754.0,1763.0,1727.0,1909.0,1463.0,1751.0,1763.0,1765.0,98.96088409423828,10.842275619506836,82.41302490234375,Left
3538.216796875,11384,1,1757.0,1758.0,1797.0,1853.0,1550.0,1749.0,1751.0,1752.0,98.96088409423828,10.842275619506836,82.41302490234375,Left
3540.216796875,11384,1,1757.0,1757.0,1767.0,1855.0,2181.0,1751.0,1759.0,1755.0,98.96088409423828,10.842275619506836,82.41302490234375,Left
3542.216796875,11384,1,1755.0,1756.0,1733.0,1849.0,1762.0,1754.0,1757.0,1757.0,98.96088409423828,10.842275619506836,82.41302490234375,Left
3544.216796875,11384,1,1757.0,1757.0,1736.0,1896.0,1767.0,1751.0,1757.0,1736.0,98.96088409423828,10.842275619506836,82.41302490234375,Left
3546.216796875,11384,1,1757.0,1718.0,1780.0,1699.0,1490.0,1748.0,1757.0,1765.0,98.96088409423828,10.842275619506836,82.41302490234375,Left
3545.928955078125,11385,1,1759.0,1757.0,1747.0,1679.0,1807.0,1751.0,1757.0,1751.0,98.96088409423828,10.842275619506836,82.41302490234375,Left
3547.928955078125,11385,1,1755.0,1757.0,1780.0,1751.0,1769.0,1742.0,1757.0,1754.0,98.96088409423828,10.842275619506836,82.41302490234375,Left
3549.928955078125,11385,1,1752.0,1754.0,1720.0,1734.0,1579.0,1749.0,1757.0,1701.0,98.96088409423828,10.842275619506836,82.41302490234375,Left
3551.928955078125,11385,1,1755.0,1759.0,1720.0,1727.0,1847.0,1751.0,1764.0,1759.0,98.96088409423828,10.842275619506836,82.41302490234375,Left
3553.928955078125,11385,1,1757.0,1767.0,1743.0,1755.0,1547.0,1750.0,1757.0,1739.0,98.96088409423828,10.842275619506836,82.41302490234375,Left
3554.12109375,11386,1,1758.0,1759.0,1757.0,1637.0,1928.0,1751.0,1758.0,1756.0,98.96088409423828,10.842275619506836,82.41302490234375,Left
3556.12109375,11386,1,1757.0,1759.0,1773.0,1683.0,1631.0,1749.0,1759.0,1742.0,98.96088409423828,10.842275619506836,82.41302490234375,Left
3558.12109375,11386,1,1757.0,1763.0,1797.0,1762.0,1811.0,1751.0,1759.0,1763.0,98.96088409423828,10.842275619506836,82.41302490234375,Left
3560.12109375,11386,1,1773.0,1755.0,1768.0,1829.0,1881.0,1749.0,1761.0,1749.0,98.96088409423828,10.842275619506836,82.41302490234375,Left
3562.12109375,11386,1,1757.0,1758.0,1739.0,1726.0,1781.0,1752.0,1762.0,1741.0,98.96088409423828,10.842275619506836,82.41302490234375,Left
3568.6728515625,11387,1,1756.0,1757.0,1747.0,1735.0,1737.0,1763.0,1764.0,1751.0,98.96088409423828,10.842275619506836,82.41302490234375,Left
3570.6728515625,11387,1,1754.0,1763.0,1768.0,1703.0,1597.0,1752.0,1758.0,1715.0,98.96088409423828,10.842275619506836,82.41302490234375,Left
3572.6728515625,11387,1,1757.0,1759.0,1738.0,1709.0,1625.0,1751.0,1757.0,1740.0,98.96088409423828,10.842275619506836,82.41302490234375,Left
3574.6728515625,11387,1,1757.0,1759.0,1741.0,1717.0,1865.0,1751.0,1759.0,1718.0,98.96088409423828,10.842275619506836,82.41302490234375,Left
3576.6728515625,11387,1,1755.0,1759.0,1763.0,1687.0,1677.0,1749.0,1757.0,1772.0,98.96088409423828,10.842275619506836,82.41302490234375,Left
3574.374267578125,11388,1,1785.0,1753.0,1787.0,1801.0,1581.0,1751.0,1757.0,1773.0,98.96088409423828,10.842275619506836,82.41302490234375,Left
3576.374267578125,11388,1,1759.0,1758.0,1783.0,1806.0,1678.0,1751.0,1757.0,1789.0,98.96088409423828,10.842275619506836,82.41302490234375,Left
3578.374267578125,11388,1,1757.0,1759.0,1740.0,1797.0,1727.0,1755.0,1754.0,1711.0,98.96088409423828,10.842275619506836,82.41302490234375,Left
3580.374267578125,11388,1,1761.0,1780.0,1689.0,1693.0,1977.0,1751.0,1757.0,1726.0,98.96088409423828,10.842275619506836,82.41302490234375,Left
3582.374267578125,11388,1,1757.0,1759.0,1767.0,1576.0,1899.0,1752.0,1763.0,1763.0,98.96088409423828,10.842275619506836,82.41302490234375,Left
3588.56396484375,11389,1,1755.0,1759.0,1739.0,1623.0,1769.0,1750.0,1757.0,1735.0,98.96088409423828,10.842275619506836,82.41302490234375,Left
3590.56396484375,11389,1,1757.0,1761.0,1747.0,1765.0,1659.0,1751.0,1757.0,1747.0,98.96088409423828,10.842275619506836,82.41302490234375,Left
3592.56396484375,11389,1,1787.0,1765.0,1755.0,1784.0,1755.0,1750.0,1757.0,1765.0,98.96088409423828,10.842275619506836,82.41302490234375,Left
3594.56396484375,11389,1,1757.0,1762.0,1763.0,1688.0,1883.0,1751.0,1761.0,1757.0,98.96088409423828,10.842275619506836,82.41302490234375,Left
3596.56396484375,11389,1,1756.0,1759.0,1761.0,1657.0,1725.0,1747.0,1759.0,1737.0,97.40877532958984,11.240804672241211,80.83731079101562,Left
3596.8662109375,11390,1,1755.0,1757.0,1753.0,1749.0,1699.0,1751.0,1757.0,1725.0,97.40877532958984,11.240804672241211,80.83731079101562,Left
3598.8662109375,11390,1,1755.0,1757.0,1765.0,1753.0,1701.0,1749.0,1758.0,1726.0,97.40877532958984,11.240804672241211,80.83731079101562,Left
3600.8662109375,11390,1,1757.0,1761.0,1771.0,1775.0,1829.0,1750.0,1757.0,1787.0,97.40877532958984,11.240804672241211,80.83731079101562,Left
3602.8662109375,11390,1,1755.0,1755.0,1755.0,1932.0,1489.0,1751.0,1759.0,1710.0,97.40877532958984,11.240804672241211,80.83731079101562,Left
3604.8662109375,11390,1,1755.0,1757.0,1735.0,1919.0,1855.0,1752.0,1763.0,1765.0,97.40877532958984,11.240804672241211,80.83731079101562,Left
3605.02294921875,11391,1,1753.0,1757.0,1781.0,1926.0,1865.0,1751.0,1758.0,1752.0,97.40877532958984,11.240804672241211,80.83731079101562,Left
3607.02294921875,11391,1,1749.0,1765.0,1758.0,1875.0,1652.0,1747.0,1757.0,1763.0,97.40877532958984,11.240804672241211,80.83731079101562,Left
3609.02294921875,11391,1,1754.0,1757.0,1782.0,1915.0,1726.0,1750.0,1759.0,1755.0,97.40877532958984,11.240804672241211,80.83731079101562,Left
3611.02294921875,11391,1,1761.0,1758.0,1723.0,1798.0,1695.0,1749.0,1759.0,1750.0,97.40877532958984,11.240804672241211,80.83731079101562,Left
3613.02294921875,11391,1,1755.0,1757.0,1763.0,1897.0,1741.0,1749.0,1759.0,1745.0,97.40877532958984,11.240804672241211,80.83731079101562,Left
3615.814208984375,11392,1,1733.0,1759.0,1715.0,1802.0,1749.0,1745.0,1755.0,1721.0,97.40877532958984,11.240804672241211,80.83731079101562,Left
3617.814208984375,11392,1,1747.0,1759.0,1733.0,1662.0,1933.0,1749.0,1757.0,1737.0,97.40877532958984,11.240804672241211,80.83731079101562,Left
3619.814208984375,11392,1,1756.0,1757.0,1781.0,1589.0,1891.0,1749.0,1757.0,1725.0,97.40877532958984,11.240804672241211,80.83731079101562,Left
3621.814208984375,11392,1,1755.0,1763.0,1759.0,1543.0,1403.0,1750.0,1757.0,1751.0,97.40877532958984,11.240804672241211,80.83731079101562,Left
3623.814208984375,11392,1,1756.0,1757.0,1784.0,1553.0,1875.0,1749.0,1757.0,1785.0,97.40877532958984,11.240804672241211,80.83731079101562,Left
3626.931884765625,11393,1,1757.0,1758.0,1756.0,1623.0,1747.0,1750.0,1765.0,1726.0,97.40877532958984,11.240804672241211,80.83731079101562,Left
3628.931884765625,11393,1,1755.0,1757.0,1743.0,1689.0,1827.0,1752.0,1759.0,1727.0,97.40877532958984,11.240804672241211,80.83731079101562,Left
3630.931884765625,11393,1,1757.0,1757.0,1765.0,1638.0,1517.0,1751.0,1757.0,1745.0,97.40877532958984,11.240804672241211,80.83731079101562,Left
3632.931884765625,11393,1,1758.0,1757.0,1753.0,1679.0,1941.0,1750.0,1757.0,1755.0,97.40877532958984,11.240804672241211,80.83731079101562,Left
3634.931884765625,11393,1,1755.0,1757.0,1779.0,1817.0,1386.0,1752.0,1762.0,1775.0,97.40877532958984,11.240804672241211,80.83731079101562,Left
3637.385009765625,11394,1,1747.0,1763.0,1759.0,1875.0,1790.0,1749.0,1759.0,1706.0,97.40877532958984,11.240804672241211,80.83731079101562,Left
3639.385009765625,11394,1,1757.0,1759.0,1743.0,1771.0,1719.0,1749.0,1756.0,1756.0,97.40877532958984,11.240804672241211,80.83731079101562,Left
3641.385009765625,11394,1,1757.0,1763.0,1769.0,1800.0,1934.0,1757.0,1763.0,1788.0,97.40877532958984,11.240804672241211,80.83731079101562,Left
3643.385009765625,11394,1,1757.0,1758.0,1733.0,1786.0,1725.0,1751.0,1757.0,1741.0,97.40877532958984,11.240804672241211,80.83731079101562,Left
3645.385009765625,11394,1,1758.0,1759.0,1753.0,1878.0,1715.0,1749.0,1758.0,1739.0,97.40877532958984,11.240804672241211,80.83731079101562,Left
3650.198974609375,11395,1,1754.0,1758.0,1751.0,1717.0,1511.0,1751.0,1757.0,1721.0,97.40877532958984,11.240804672241211,80.83731079101562,Left
3652.198974609375,11395,1,1757.0,1765.0,1767.0,1691.0,1321.0,1749.0,1758.0,1782.0,97.40877532958984,11.240804672241211,80.83731079101562,Left
3654.198974609375,11395,1,1785.0,1759.0,1780.0,1607.0,2090.0,1752.0,1763.0,1752.0,97.40877532958984,11.240804672241211,80.83731079101562,Left
3656.198974609375,11395,1,1757.0,1757.0,1763.0,1670.0,1879.0,1750.0,1763.0,1738.0,97.40877532958984,11.240804672241211,80.83731079101562,Left
3658.198974609375,11395,1,1753.0,1763.0,1741.0,1712.0,1450.0,1741.0,1757.0,1741.0,97.40877532958984,11.240804672241211,80.83731079101562,Left
3655.998046875,11396,1,1757.0,1762.0,1747.0,1788.0,1681.0,1749.0,1762.0,1739.0,97.40877532958984,11.240804672241211,80.83731079101562,Left
3657.998046875,11396,1,1758.0,1753.0,1774.0,1717.0,1902.0,1750.0,1759.0,1763.0,97.40877532958984,11.240804672241211,80.83731079101562,Left
3659.998046875,11396,1,1757.0,1762.0,1775.0,1779.0,2095.0,1750.0,1759.0,1768.0,99.01081085205078,14.793636322021484,84.11813354492188,Left
3661.998046875,11396,1,1747.0,1757.0,1741.0,1871.0,1533.0,1751.0,1758.0,1723.0,99.01081085205078,14.793636322021484,84.11813354492188,Left
3663.998046875,11396,1,1757.0,1758.0,1735.0,1845.0,1523.0,1752.0,1759.0,1725.0,99.01081085205078,14.793636322021484,84.11813354492188,Left
3671.2119140625,11397,1,1757.0,1756.0,1759.0,1753.0,1737.0,1751.0,1759.0,1722.0,99.01081085205078,14.793636322021484,84.11813354492188,Left
3673.2119140625,11397,1,1788.0,1768.0,1733.0,1799.0,1640.0,1749.0,1755.0,1753.0,99.01081085205078,14.793636322021484,84.11813354492188,Left
3675.2119140625,11397,1,1756.0,1763.0,1771.0,1837.0,1694.0,1751.0,1759.0,1758.0,99.01081085205078,14.793636322021484,84.11813354492188,Left
3677.2119140625,11397,1,1757.0,1761.0,1755.0,1839.0,1691.0,1751.0,1763.0,1753.0,99.01081085205078,14.793636322021484,84.11813354492188,Left
3679.2119140625,11397,1,1757.0,1763.0,1753.0,1772.0,1705.0,1751.0,1756.0,1727.0,99.01081085205078,14.793636322021484,84.11813354492188,Left
3676.260009765625,11398,1,1757.0,1759.0,1787.0,1743.0,2151.0,1751.0,1761.0,1783.0,99.01081085205078,14.793636322021484,84.11813354492188,Left
3678.260009765625,11398,1,1759.0,1757.0,1779.0,1751.0,1733.0,1751.0,1759.0,1765.0,99.01081085205078,14.793636322021484,84.11813354492188,Left
3680.260009765625,11398,1,1757.0,1759.0,1775.0,1927.0,1679.0,1751.0,1755.0,1733.0,99.01081085205078,14.793636322021484,84.11813354492188,Left
3682.260009765625,11398,1,1767.0,1759.0,1735.0,1820.0,1855.0,1751.0,1762.0,1721.0,99.01081085205078,14.793636322021484,84.11813354492188,Left
3684.260009765625,11398,1,1753.0,1759.0,1719.0,1849.0,1865.0,1751.0,1755.0,1719.0,99.01081085205078,14.793636322021484,84.11813354492188,Left
3689.575927734375,11399,1,1755.0,1759.0,1735.0,1835.0,1780.0,1748.0,1765.0,1728.0,99.01081085205078,14.793636322021484,84.11813354492188,Left
3691.575927734375,11399,1,1756.0,1757.0,1779.0,1845.0,1659.0,1751.0,1755.0,1774.0,99.01081085205078,14.793636322021484,84.11813354492188,Left
3693.575927734375,11399,1,1755.0,1761.0,1789.0,1805.0,1741.0,1750.0,1758.0,1767.0,99.01081085205078,14.793636322021484,84.11813354492188,Left
3695.575927734375,11399,1,1757.0,1759.0,1779.0,1811.0,2028.0,1751.0,1757.0,1771.0,99.01081085205078,14.793636322021484,84.11813354492188,Left
3697.575927734375,11399,1,1756.0,1761.0,1750.0,1768.0,1553.0,1751.0,1761.0,1759.0,99.01081085205078,14.793636322021484,84.11813354492188,Left
3697.995849609375,11400,1,1739.0,1767.0,1737.0,1833.0,1787.0,1751.0,1759.0,1727.0,99.01081085205078,14.793636322021484,84.11813354492188,Left
3699.995849609375,11400,1,1756.0,1754.0,1771.0,1764.0,1511.0,1749.0,1759.0,1762.0,99.01081085205078,14.793636322021484,84.11813354492188,Left
3701.995849609375,11400,1,1756.0,1762.0,1756.0,1721.0,1659.0,1753.0,1759.0,1763.0,99.01081085205078,14.793636322021484,84.11813354492188,Left
3703.995849609375,11400,1,1759.0,1757.0,1770.0,1755.0,1981.0,1750.0,1758.0,1737.0,99.01081085205078,14.793636322021484,84.11813354492188,Left
3705.995849609375,11400,1,1755.0,1761.0,1751.0,1763.0,1847.0,1751.0,1757.0,1727.0,99.01081085205078,14.793636322021484,84.11813354492188,Left
3726.571044921875,11401,1,1754.0,1761.0,1758.0,1707.0,1737.0,1753.0,1763.0,1755.0,99.01081085205078,14.793636322021484,84.11813354492188,Left
3728.571044921875,11401,1,1755.0,1757.0,1735.0,1877.0,1685.0,1750.0,1759.0,1727.0,99.01081085205078,14.793636322021484,84.11813354492188,Left
3730.571044921875,11401,1,1787.0,1755.0,1759.0,1843.0,1945.0,1751.0,1763.0,1785.0,99.01081085205078,14.793636322021484,84.11813354492188,Left
3732.571044921875,11401,1,1757.0,1756.0,1736.0,1749.0,1931.0,1750.0,1758.0,1722.0,99.01081085205078,14.793636322021484,84.11813354492188,Left
3734.571044921875,11401,1,1755.0,1762.0,1755.0,1747.0,1269.0,1753.0,1757.0,1751.0,99.01081085205078,14.793636322021484,84.11813354492188,Left
3727.241943359375,11402,1,1757.0,1759.0,1751.0,1628.0,1693.0,1750.0,1762.0,1753.0,99.01081085205078,14.793636322021484,84.11813354492188,Left
3729.241943359375,11402,1,1754.0,1757.0,1763.0,1687.0,1869.0,1751.0,1752.0,1775.0,99.01081085205078,14.793636322021484,84.11813354492188,Left
3731.241943359375,11402,1,1757.0,1759.0,1743.0,1739.0,1759.0,1752.0,1758.0,1715.0,99.01081085205078,14.793636322021484,84.11813354492188,Left
3733.241943359375,11402,1,1756.0,1755.0,1757.0,1644.0,1673.0,1751.0,1758.0,1751.0,99.01081085205078,14.793636322021484,84.11813354492188,Left
3735.241943359375,11402,1,1757.0,1758.0,1767.0,1689.0,1848.0,1751.0,1759.0,1727.0,101.6410903930664,18.308074951171875,87.65895080566406,Left
3727.62890625,11403,1,1755.0,1759.0,1742.0,1715.0,1837.0,1751.0,1758.0,1769.0,101.6410903930664,18.308074951171875,87.65895080566406,Left
3729.62890625,11403,1,1757.0,1765.0,1762.0,1807.0,1707.0,1763.0,1757.0,1763.0,101.6410903930664,18.308074951171875,87.65895080566406,Left
3731.62890625,11403,1,1757.0,1759.0,1757.0,1801.0,1593.0,1751.0,1757.0,1725.0,101.6410903930664,18.308074951171875,87.65895080566406,Left
