Timestamp_ms,Packet_Number,Trial_ID,Ch1,Ch2,Ch3,Ch4,Ch5,Ch6,Ch7,Ch8,Ch9,Ch10,Ch11,Label
3272.968505859375,162090,1,1738.0,1749.0,1751.0,1814.0,1733.0,1749.0,1763.0,1733.0,68.05225372314453,-41.062076568603516,-48.6318359375,Left
3274.968505859375,162090,1,1741.0,1749.0,1757.0,1843.0,1737.0,1743.0,1759.0,1739.0,68.05225372314453,-41.062076568603516,-48.6318359375,Left
3276.968505859375,162090,1,1751.0,1754.0,1759.0,1879.0,1742.0,1754.0,1759.0,1747.0,68.05225372314453,-41.062076568603516,-48.6318359375,Left
3278.968505859375,162090,1,1755.0,1763.0,1756.0,1751.0,1747.0,1725.0,1763.0,1753.0,68.05225372314453,-41.062076568603516,-48.6318359375,Left
3280.968505859375,162090,1,1769.0,1762.0,1759.0,1663.0,1757.0,1755.0,1763.0,1755.0,68.05225372314453,-41.062076568603516,-48.6318359375,Left
3282.756103515625,162091,1,1769.0,1755.0,1758.0,1683.0,1763.0,1741.0,1749.0,1747.0,68.05225372314453,-41.062076568603516,-48.6318359375,Left
3284.756103515625,162091,1,1767.0,1765.0,1759.0,1643.0,1758.0,1763.0,1759.0,1752.0,68.05225372314453,-41.062076568603516,-48.6318359375,Left
3286.756103515625,162091,1,1779.0,1770.0,1755.0,1492.0,1769.0,1771.0,1765.0,1765.0,68.05225372314453,-41.062076568603516,-48.6318359375,Left
3288.756103515625,162091,1,1768.0,1769.0,1759.0,1528.0,1757.0,1759.0,1764.0,1756.0,68.05225372314453,-41.062076568603516,-48.6318359375,Left
3290.756103515625,162091,1,1756.0,1764.0,1756.0,1605.0,1749.0,1748.0,1763.0,1739.0,68.05225372314453,-41.062076568603516,-48.6318359375,Left
3296.60302734375,162092,1,1741.0,1751.0,1752.0,1781.0,1739.0,1725.0,1753.0,1717.0,68.05225372314453,-41.062076568603516,-48.6318359375,Left
3298.60302734375,162092,1,1741.0,1754.0,1756.0,1784.0,1741.0,1743.0,1765.0,1737.0,68.05225372314453,-41.062076568603516,-48.6318359375,Left
3300.60302734375,162092,1,1751.0,1753.0,1758.0,1977.0,1739.0,1752.0,1763.0,1743.0,68.05225372314453,-41.062076568603516,-48.6318359375,Left
3302.60302734375,162092,1,1750.0,1755.0,1757.0,1875.0,1747.0,1765.0,1755.0,1752.0,68.05225372314453,-41.062076568603516,-48.6318359375,Left
3304.60302734375,162092,1,1757.0,1765.0,1757.0,1851.0,1757.0,1768.0,1763.0,1757.0,68.05225372314453,-41.062076568603516,-48.6318359375,Left
3330.110107421875,162093,1,1769.0,1771.0,1752.0,1736.0,1759.0,1764.0,1759.0,1759.0,68.05225372314453,-41.062076568603516,-48.6318359375,Left
3332.110107421875,162093,1,1767.0,1769.0,1755.0,1565.0,1762.0,1736.0,1763.0,1755.0,68.05225372314453,-41.062076568603516,-48.6318359375,Left
3334.110107421875,162093,1,1774.0,1769.0,1757.0,1545.0,1754.0,1751.0,1747.0,1767.0,68.05225372314453,-41.062076568603516,-48.6318359375,Left
3336.110107421875,162093,1,1764.0,1769.0,1759.0,1653.0,1756.0,1757.0,1758.0,1753.0,68.05225372314453,-41.062076568603516,-48.6318359375,Left
3338.110107421875,162093,1,1755.0,1764.0,1757.0,1742.0,1755.0,1759.0,1763.0,1741.0,68.05225372314453,-41.062076568603516,-48.6318359375,Left
3330.110107421875,162094,1,1738.0,1748.0,1757.0,1867.0,1737.0,1743.0,1761.0,1727.0,68.05225372314453,-41.062076568603516,-48.6318359375,Left
3332.110107421875,162094,1,1737.0,1748.0,1755.0,1909.0,1738.0,1742.0,1759.0,1735.0,68.05225372314453,-41.062076568603516,-48.6318359375,Left
3334.110107421875,162094,1,1746.0,1751.0,1757.0,1945.0,1745.0,1747.0,1763.0,1745.0,68.05225372314453,-41.062076568603516,-48.6318359375,Left
3336.110107421875,162094,1,1757.0,1763.0,1757.0,1997.0,1750.0,1748.0,1759.0,1749.0,68.05225372314453,-41.062076568603516,-48.6318359375,Left
3338.110107421875,162094,1,1765.0,1765.0,1763.0,1883.0,1757.0,1764.0,1759.0,1757.0,68.05225372314453,-41.062076568603516,-48.6318359375,Left
3330.110107421875,162095,1,1771.0,1767.0,1759.0,1869.0,1761.0,1753.0,1764.0,1756.0,68.05225372314453,-41.062076568603516,-48.6318359375,Left
3332.110107421875,162095,1,1781.0,1770.0,1757.0,1723.0,1763.0,1757.0,1763.0,1758.0,68.25579833984375,-41.01102828979492,-48.55653762817383,Left
3334.110107421875,162095,1,1775.0,1775.0,1757.0,1582.0,1767.0,1759.0,1763.0,1767.0,68.25579833984375,-41.01102828979492,-48.55653762817383,Left
3336.110107421875,162095,1,1769.0,1768.0,1757.0,1527.0,1773.0,1746.0,1761.0,1750.0,68.25579833984375,-41.01102828979492,-48.55653762817383,Left
3338.110107421875,162095,1,1756.0,1759.0,1756.0,1637.0,1749.0,1754.0,1759.0,1741.0,68.25579833984375,-41.01102828979492,-48.55653762817383,Left
3333.437744140625,162096,1,1737.0,1751.0,1763.0,1800.0,1734.0,1741.0,1759.0,1735.0,68.25579833984375,-41.01102828979492,-48.55653762817383,Left
3335.437744140625,162096,1,1743.0,1743.0,1757.0,1833.0,1742.0,1737.0,1759.0,1737.0,68.25579833984375,-41.01102828979492,-48.55653762817383,Left
3337.437744140625,162096,1,1751.0,1752.0,1757.0,1983.0,1739.0,1747.0,1763.0,1747.0,68.25579833984375,-41.01102828979492,-48.55653762817383,Left
3339.437744140625,162096,1,1753.0,1762.0,1757.0,1849.0,1751.0,1752.0,1762.0,1752.0,68.25579833984375,-41.01102828979492,-48.55653762817383,Left
3341.437744140625,162096,1,1767.0,1765.0,1759.0,1813.0,1755.0,1755.0,1759.0,1755.0,68.25579833984375,-41.01102828979492,-48.55653762817383,Left
3342.14599609375,162097,1,1771.0,1767.0,1748.0,1803.0,1759.0,1761.0,1754.0,1749.0,68.25579833984375,-41.01102828979492,-48.55653762817383,Left
3344.14599609375,162097,1,1767.0,1768.0,1757.0,1699.0,1759.0,1757.0,1763.0,1759.0,68.25579833984375,-41.01102828979492,-48.55653762817383,Left
3346.14599609375,162097,1,1779.0,1771.0,1759.0,1515.0,1768.0,1763.0,1763.0,1767.0,68.25579833984375,-41.01102828979492,-48.55653762817383,Left
3348.14599609375,162097,1,1768.0,1767.0,1755.0,1466.0,1757.0,1765.0,1763.0,1753.0,68.25579833984375,-41.01102828979492,-48.55653762817383,Left
3350.14599609375,162097,1,1761.0,1763.0,1757.0,1551.0,1751.0,1755.0,1762.0,1747.0,68.25579833984375,-41.01102828979492,-48.55653762817383,Left
3357.12451171875,162098,1,1739.0,1752.0,1761.0,1753.0,1735.0,1735.0,1763.0,1733.0,68.25579833984375,-41.01102828979492,-48.55653762817383,Left
3359.12451171875,162098,1,1743.0,1753.0,1759.0,1753.0,1740.0,1737.0,1763.0,1736.0,68.25579833984375,-41.01102828979492,-48.55653762817383,Left
3361.12451171875,162098,1,1739.0,1751.0,1753.0,1871.0,1741.0,1725.0,1763.0,1741.0,68.25579833984375,-41.01102828979492,-48.55653762817383,Left
3363.12451171875,162098,1,1755.0,1763.0,1757.0,1963.0,1753.0,1748.0,1759.0,1753.0,68.25579833984375,-41.01102828979492,-48.55653762817383,Left
3365.12451171875,162098,1,1764.0,1763.0,1761.0,1909.0,1756.0,1769.0,1763.0,1752.0,68.25579833984375,-41.01102828979492,-48.55653762817383,Left
3361.282958984375,162099,1,1770.0,1771.0,1756.0,1863.0,1767.0,1767.0,1762.0,1759.0,68.25579833984375,-41.01102828979492,-48.55653762817383,Left
3363.282958984375,162099,1,1763.0,1770.0,1758.0,1741.0,1757.0,1753.0,1761.0,1753.0,68.25579833984375,-41.01102828979492,-48.55653762817383,Left
3365.282958984375,162099,1,1781.0,1774.0,1759.0,1567.0,1769.0,1759.0,1759.0,1767.0,68.25579833984375,-41.01102828979492,-48.55653762817383,Left
3367.282958984375,162099,1,1764.0,1769.0,1757.0,1566.0,1755.0,1749.0,1755.0,1753.0,68.25579833984375,-41.01102828979492,-48.55653762817383,Left
3369.282958984375,162099,1,1767.0,1757.0,1756.0,1583.0,1750.0,1743.0,1761.0,1747.0,68.25579833984375,-41.01102828979492,-48.55653762817383,Left
3371.19580078125,162100,1,1740.0,1741.0,1762.0,1783.0,1733.0,1741.0,1757.0,1735.0,68.25579833984375,-41.01102828979492,-48.55653762817383,Left
3373.19580078125,162100,1,1743.0,1751.0,1757.0,1815.0,1739.0,1742.0,1759.0,1738.0,68.25579833984375,-41.01102828979492,-48.55653762817383,Left
3375.19580078125,162100,1,1745.0,1753.0,1757.0,1785.0,1747.0,1747.0,1764.0,1741.0,68.25579833984375,-41.01102828979492,-48.55653762817383,Left
3377.19580078125,162100,1,1757.0,1761.0,1757.0,1810.0,1749.0,1750.0,1763.0,1749.0,68.25579833984375,-41.01102828979492,-48.55653762817383,Left
3379.19580078125,162100,1,1763.0,1763.0,1756.0,1822.0,1756.0,1755.0,1759.0,1754.0,68.25579833984375,-41.01102828979492,-48.55653762817383,Left
3381.38720703125,162101,1,1764.0,1765.0,1752.0,1770.0,1757.0,1762.0,1758.0,1765.0,68.25579833984375,-41.01102828979492,-48.55653762817383,Left
3383.38720703125,162101,1,1772.0,1769.0,1757.0,1737.0,1763.0,1769.0,1763.0,1755.0,68.25579833984375,-41.01102828979492,-48.55653762817383,Left
3385.38720703125,162101,1,1783.0,1772.0,1755.0,1565.0,1770.0,1758.0,1757.0,1767.0,68.25579833984375,-41.01102828979492,-48.55653762817383,Left
3387.38720703125,162101,1,1765.0,1767.0,1758.0,1513.0,1753.0,1755.0,1762.0,1752.0,68.44684600830078,-41.10397720336914,-48.771080017089844,Left
3389.38720703125,162101,1,1765.0,1771.0,1756.0,1663.0,1755.0,1755.0,1763.0,1747.0,68.44684600830078,-41.10397720336914,-48.771080017089844,Left
3395.586669921875,162102,1,1737.0,1747.0,1750.0,1771.0,1737.0,1741.0,1763.0,1737.0,68.44684600830078,-41.10397720336914,-48.771080017089844,Left
3397.586669921875,162102,1,1747.0,1753.0,1755.0,1991.0,1739.0,1741.0,1759.0,1737.0,68.44684600830078,-41.10397720336914,-48.771080017089844,Left
3399.586669921875,162102,1,1743.0,1752.0,1756.0,2030.0,1743.0,1747.0,1763.0,1747.0,68.44684600830078,-41.10397720336914,-48.771080017089844,Left
3401.586669921875,162102,1,1765.0,1757.0,1757.0,1963.0,1755.0,1752.0,1763.0,1751.0,68.44684600830078,-41.10397720336914,-48.771080017089844,Left
3403.586669921875,162102,1,1761.0,1761.0,1757.0,1898.0,1751.0,1751.0,1759.0,1755.0,68.44684600830078,-41.10397720336914,-48.771080017089844,Left
3413.375244140625,162103,1,1769.0,1768.0,1756.0,1819.0,1757.0,1759.0,1762.0,1763.0,68.44684600830078,-41.10397720336914,-48.771080017089844,Left
3415.375244140625,162103,1,1768.0,1767.0,1746.0,1651.0,1758.0,1761.0,1764.0,1758.0,68.44684600830078,-41.10397720336914,-48.771080017089844,Left
3417.375244140625,162103,1,1777.0,1771.0,1757.0,1506.0,1769.0,1767.0,1759.0,1764.0,68.44684600830078,-41.10397720336914,-48.771080017089844,Left
3419.375244140625,162103,1,1764.0,1772.0,1758.0,1369.0,1763.0,1758.0,1759.0,1751.0,68.44684600830078,-41.10397720336914,-48.771080017089844,Left
3421.375244140625,162103,1,1754.0,1759.0,1761.0,1407.0,1749.0,1751.0,1763.0,1741.0,68.44684600830078,-41.10397720336914,-48.771080017089844,Left
3414.3984375,162104,1,1739.0,1750.0,1747.0,1747.0,1736.0,1739.0,1765.0,1725.0,68.44684600830078,-41.10397720336914,-48.771080017089844,Left
3416.3984375,162104,1,1747.0,1749.0,1754.0,1907.0,1740.0,1736.0,1761.0,1739.0,68.44684600830078,-41.10397720336914,-48.771080017089844,Left
3418.3984375,162104,1,1747.0,1755.0,1752.0,2057.0,1738.0,1741.0,1759.0,1741.0,68.44684600830078,-41.10397720336914,-48.771080017089844,Left
3420.3984375,162104,1,1754.0,1757.0,1759.0,1912.0,1755.0,1753.0,1763.0,1751.0,68.44684600830078,-41.10397720336914,-48.771080017089844,Left
3422.3984375,162104,1,1770.0,1767.0,1756.0,1999.0,1753.0,1755.0,1765.0,1757.0,68.44684600830078,-41.10397720336914,-48.771080017089844,Left
3445.087890625,162105,1,1767.0,1767.0,1750.0,1879.0,1757.0,1757.0,1763.0,1764.0,68.44684600830078,-41.10397720336914,-48.771080017089844,Left
3447.087890625,162105,1,1767.0,1769.0,1755.0,1723.0,1759.0,1759.0,1759.0,1763.0,68.44684600830078,-41.10397720336914,-48.771080017089844,Left
3449.087890625,162105,1,1785.0,1773.0,1757.0,1507.0,1767.0,1763.0,1763.0,1765.0,68.44684600830078,-41.10397720336914,-48.771080017089844,Left
3451.087890625,162105,1,1770.0,1770.0,1757.0,1496.0,1755.0,1754.0,1763.0,1754.0,68.44684600830078,-41.10397720336914,-48.771080017089844,Left
3453.087890625,162105,1,1755.0,1756.0,1758.0,1684.0,1749.0,1753.0,1759.0,1736.0,68.44684600830078,-41.10397720336914,-48.771080017089844,Left
3445.087890625,162106,1,1740.0,1747.0,1758.0,2006.0,1727.0,1740.0,1759.0,1727.0,68.44684600830078,-41.10397720336914,-48.771080017089844,Left
3447.087890625,162106,1,1742.0,1750.0,1757.0,2109.0,1738.0,1742.0,1759.0,1737.0,68.44684600830078,-41.10397720336914,-48.771080017089844,Left
3449.087890625,162106,1,1749.0,1755.0,1758.0,2123.0,1739.0,1739.0,1757.0,1740.0,68.44684600830078,-41.10397720336914,-48.771080017089844,Left
3451.087890625,162106,1,1753.0,1763.0,1757.0,2085.0,1756.0,1754.0,1759.0,1750.0,68.44684600830078,-41.10397720336914,-48.771080017089844,Left
3453.087890625,162106,1,1765.0,1763.0,1755.0,2039.0,1757.0,1753.0,1763.0,1757.0,68.44684600830078,-41.10397720336914,-48.771080017089844,Left
3446.081787109375,162107,1,1764.0,1765.0,1755.0,1705.0,1755.0,1759.0,1764.0,1757.0,68.44684600830078,-41.10397720336914,-48.771080017089844,Left
3448.081787109375,162107,1,1764.0,1767.0,1755.0,1588.0,1757.0,1765.0,1759.0,1757.0,68.44684600830078,-41.10397720336914,-48.771080017089844,Left
3450.081787109375,162107,1,1771.0,1775.0,1756.0,1567.0,1771.0,1767.0,1763.0,1767.0,68.44684600830078,-41.10397720336914,-48.771080017089844,Left
3452.081787109375,162107,1,1764.0,1769.0,1758.0,1598.0,1751.0,1751.0,1763.0,1743.0,68.44684600830078,-41.10397720336914,-48.771080017089844,Left
3454.081787109375,162107,1,1763.0,1762.0,1757.0,1705.0,1750.0,1743.0,1765.0,1747.0,68.44684600830078,-41.10397720336914,-48.771080017089844,Left
3451.26220703125,162108,1,1739.0,1751.0,1748.0,1977.0,1739.0,1733.0,1759.0,1727.0,68.44684600830078,-41.10397720336914,-48.771080017089844,Left
3453.26220703125,162108,1,1739.0,1751.0,1757.0,2005.0,1740.0,1743.0,1763.0,1736.0,68.42588806152344,-41.17852020263672,-48.78872299194336,Left
3455.26220703125,162108,1,1757.0,1751.0,1759.0,2013.0,1741.0,1747.0,1763.0,1747.0,68.42588806152344,-41.17852020263672,-48.78872299194336,Left
3457.26220703125,162108,1,1757.0,1759.0,1758.0,1831.0,1748.0,1752.0,1757.0,1755.0,68.42588806152344,-41.17852020263672,-48.78872299194336,Left
3459.26220703125,162108,1,1771.0,1765.0,1759.0,1803.0,1756.0,1737.0,1763.0,1756.0,68.42588806152344,-41.17852020263672,-48.78872299194336,Left
3461.892822265625,162109,1,1768.0,1767.0,1748.0,1736.0,1756.0,1747.0,1763.0,1752.0,68.42588806152344,-41.17852020263672,-48.78872299194336,Left
3463.892822265625,162109,1,1763.0,1771.0,1757.0,1767.0,1757.0,1785.0,1759.0,1767.0,68.42588806152344,-41.17852020263672,-48.78872299194336,Left
3465.892822265625,162109,1,1773.0,1772.0,1756.0,1565.0,1769.0,1772.0,1757.0,1763.0,68.42588806152344,-41.17852020263672,-48.78872299194336,Left
3467.892822265625,162109,1,1767.0,1772.0,1757.0,1499.0,1759.0,1775.0,1758.0,1759.0,68.42588806152344,-41.17852020263672,-48.78872299194336,Left
3469.892822265625,162109,1,1765.0,1765.0,1762.0,1575.0,1753.0,1765.0,1763.0,1743.0,68.42588806152344,-41.17852020263672,-48.78872299194336,Left
3471.461181640625,162110,1,1740.0,1751.0,1753.0,1717.0,1740.0,1725.0,1757.0,1741.0,68.42588806152344,-41.17852020263672,-48.78872299194336,Left
3473.461181640625,162110,1,1748.0,1749.0,1755.0,1886.0,1735.0,1696.0,1758.0,1725.0,68.42588806152344,-41.17852020263672,-48.78872299194336,Left
3475.461181640625,162110,1,1747.0,1749.0,1758.0,2103.0,1737.0,1743.0,1763.0,1736.0,68.42588806152344,-41.17852020263672,-48.78872299194336,Left
3477.461181640625,162110,1,1751.0,1753.0,1756.0,1963.0,1751.0,1756.0,1764.0,1743.0,68.42588806152344,-41.17852020263672,-48.78872299194336,Left
3479.461181640625,162110,1,1764.0,1759.0,1757.0,1864.0,1751.0,1769.0,1763.0,1751.0,68.42588806152344,-41.17852020263672,-48.78872299194336,Left
3481.40234375,162111,1,1773.0,1768.0,1751.0,1787.0,1759.0,1721.0,1759.0,1766.0,68.42588806152344,-41.17852020263672,-48.78872299194336,Left
3483.40234375,162111,1,1775.0,1775.0,1757.0,1767.0,1767.0,1740.0,1761.0,1759.0,68.42588806152344,-41.17852020263672,-48.78872299194336,Left
3485.40234375,162111,1,1771.0,1775.0,1758.0,1718.0,1769.0,1765.0,1763.0,1755.0,68.42588806152344,-41.17852020263672,-48.78872299194336,Left
3487.40234375,162111,1,1763.0,1771.0,1759.0,1580.0,1763.0,1756.0,1759.0,1752.0,68.42588806152344,-41.17852020263672,-48.78872299194336,Left
3489.40234375,162111,1,1755.0,1759.0,1758.0,1611.0,1746.0,1783.0,1757.0,1747.0,68.42588806152344,-41.17852020263672,-48.78872299194336,Left
3490.947509765625,162112,1,1743.0,1741.0,1755.0,1711.0,1734.0,1779.0,1759.0,1743.0,68.42588806152344,-41.17852020263672,-48.78872299194336,Left
3492.947509765625,162112,1,1746.0,1749.0,1756.0,1887.0,1736.0,1739.0,1765.0,1740.0,68.42588806152344,-41.17852020263672,-48.78872299194336,Left
3494.947509765625,162112,1,1751.0,1756.0,1755.0,2003.0,1748.0,1727.0,1761.0,1763.0,68.42588806152344,-41.17852020263672,-48.78872299194336,Left
3496.947509765625,162112,1,1763.0,1767.0,1753.0,1911.0,1759.0,1747.0,1761.0,1768.0,68.42588806152344,-41.17852020263672,-48.78872299194336,Left
3498.947509765625,162112,1,1775.0,1769.0,1757.0,1875.0,1763.0,1763.0,1765.0,1763.0,68.42588806152344,-41.17852020263672,-48.78872299194336,Left
3501.515380859375,162113,1,1775.0,1771.0,1753.0,1891.0,1757.0,1767.0,1763.0,1756.0,68.42588806152344,-41.17852020263672,-48.78872299194336,Left
3503.515380859375,162113,1,1767.0,1762.0,1755.0,1743.0,1750.0,1756.0,1763.0,1740.0,68.42588806152344,-41.17852020263672,-48.78872299194336,Left
3505.515380859375,162113,1,1759.0,1761.0,1759.0,1418.0,1757.0,1753.0,1763.0,1739.0,68.42588806152344,-41.17852020263672,-48.78872299194336,Left
3507.515380859375,162113,1,1755.0,1755.0,1761.0,1258.0,1749.0,1759.0,1763.0,1737.0,68.42588806152344,-41.17852020263672,-48.78872299194336,Left
3509.515380859375,162113,1,1735.0,1754.0,1756.0,1419.0,1739.0,1733.0,1758.0,1739.0,68.42588806152344,-41.17852020263672,-48.78872299194336,Left
3516.095703125,162114,1,1738.0,1747.0,1749.0,1675.0,1736.0,1733.0,1763.0,1739.0,68.42588806152344,-41.17852020263672,-48.78872299194336,Left
3518.095703125,162114,1,1751.0,1757.0,1757.0,1693.0,1743.0,1725.0,1763.0,1753.0,68.42588806152344,-41.17852020263672,-48.78872299194336,Left
3520.095703125,162114,1,1752.0,1749.0,1758.0,1909.0,1747.0,1716.0,1764.0,1757.0,68.42588806152344,-41.17852020263672,-48.78872299194336,Left
3522.095703125,162114,1,1767.0,1766.0,1758.0,1672.0,1763.0,1771.0,1763.0,1769.0,68.42588806152344,-41.17852020263672,-48.78872299194336,Left
3524.095703125,162114,1,1770.0,1769.0,1762.0,1597.0,1757.0,1769.0,1765.0,1754.0,68.3963623046875,-41.12730407714844,-48.65101623535156,Left
3524.130859375,162115,1,1764.0,1780.0,1752.0,1675.0,1754.0,1755.0,1763.0,1750.0,68.3963623046875,-41.12730407714844,-48.65101623535156,Left
3526.130859375,162115,1,1754.0,1767.0,1757.0,1675.0,1749.0,1755.0,1763.0,1749.0,68.3963623046875,-41.12730407714844,-48.65101623535156,Left
3528.130859375,162115,1,1782.0,1769.0,1757.0,1563.0,1767.0,1773.0,1763.0,1765.0,68.3963623046875,-41.12730407714844,-48.65101623535156,Left
3530.130859375,162115,1,1763.0,1765.0,1758.0,1559.0,1756.0,1769.0,1759.0,1751.0,68.3963623046875,-41.12730407714844,-48.65101623535156,Left
3532.130859375,162115,1,1757.0,1763.0,1755.0,1651.0,1747.0,1811.0,1764.0,1736.0,68.3963623046875,-41.12730407714844,-48.65101623535156,Left
3533.320068359375,162116,1,1740.0,1751.0,1752.0,1865.0,1737.0,1765.0,1763.0,1734.0,68.3963623046875,-41.12730407714844,-48.65101623535156,Left
3535.320068359375,162116,1,1743.0,1755.0,1757.0,1837.0,1741.0,1743.0,1763.0,1737.0,68.3963623046875,-41.12730407714844,-48.65101623535156,Left
3537.320068359375,162116,1,1752.0,1751.0,1757.0,1863.0,1743.0,1647.0,1756.0,1735.0,68.3963623046875,-41.12730407714844,-48.65101623535156,Left
3539.320068359375,162116,1,1762.0,1757.0,1759.0,1915.0,1753.0,1703.0,1762.0,1757.0,68.3963623046875,-41.12730407714844,-48.65101623535156,Left
3541.320068359375,162116,1,1767.0,1765.0,1756.0,1932.0,1759.0,1747.0,1757.0,1765.0,68.3963623046875,-41.12730407714844,-48.65101623535156,Left
3563.88037109375,162117,1,1770.0,1772.0,1755.0,1851.0,1761.0,1765.0,1763.0,1756.0,68.3963623046875,-41.12730407714844,-48.65101623535156,Left
3565.88037109375,162117,1,1763.0,1768.0,1755.0,1749.0,1753.0,1765.0,1763.0,1755.0,68.3963623046875,-41.12730407714844,-48.65101623535156,Left
3567.88037109375,162117,1,1769.0,1775.0,1759.0,1607.0,1758.0,1769.0,1763.0,1765.0,68.3963623046875,-41.12730407714844,-48.65101623535156,Left
3569.88037109375,162117,1,1763.0,1767.0,1761.0,1637.0,1749.0,1747.0,1763.0,1742.0,68.3963623046875,-41.12730407714844,-48.65101623535156,Left
3571.88037109375,162117,1,1750.0,1754.0,1755.0,1608.0,1748.0,1767.0,1764.0,1741.0,68.3963623046875,-41.12730407714844,-48.65101623535156,Left
3563.88037109375,162118,1,1749.0,1756.0,1751.0,1821.0,1767.0,1754.0,1763.0,1747.0,68.3963623046875,-41.12730407714844,-48.65101623535156,Left
3565.88037109375,162118,1,1752.0,1763.0,1757.0,1855.0,1749.0,1735.0,1759.0,1749.0,68.3963623046875,-41.12730407714844,-48.65101623535156,Left
3567.88037109375,162118,1,1749.0,1758.0,1763.0,1904.0,1749.0,1706.0,1761.0,1757.0,68.3963623046875,-41.12730407714844,-48.65101623535156,Left
3569.88037109375,162118,1,1759.0,1765.0,1759.0,1943.0,1753.0,1739.0,1757.0,1763.0,68.3963623046875,-41.12730407714844,-48.65101623535156,Left
3571.88037109375,162118,1,1757.0,1759.0,1759.0,1979.0,1740.0,1773.0,1762.0,1763.0,68.3963623046875,-41.12730407714844,-48.65101623535156,Left
3571.724365234375,162119,1,1765.0,1769.0,1754.0,1765.0,1752.0,1820.0,1763.0,1753.0,68.3963623046875,-41.12730407714844,-48.65101623535156,Left
3573.724365234375,162119,1,1755.0,1753.0,1756.0,1773.0,1738.0,1835.0,1763.0,1741.0,68.3963623046875,-41.12730407714844,-48.65101623535156,Left
3575.724365234375,162119,1,1751.0,1751.0,1757.0,1515.0,1708.0,1861.0,1763.0,1743.0,68.3963623046875,-41.12730407714844,-48.65101623535156,Left
3577.724365234375,162119,1,1748.0,1765.0,1759.0,1381.0,1719.0,1764.0,1757.0,1739.0,68.3963623046875,-41.12730407714844,-48.65101623535156,Left
3579.724365234375,162119,1,1784.0,1823.0,1755.0,1529.0,1910.0,1685.0,1758.0,1755.0,68.3963623046875,-41.12730407714844,-48.65101623535156,Left
3572.749755859375,162120,1,1769.0,1763.0,1755.0,1892.0,1751.0,1725.0,1764.0,1737.0,68.3963623046875,-41.12730407714844,-48.65101623535156,Left
3574.749755859375,162120,1,1714.0,1735.0,1757.0,1988.0,1694.0,1547.0,1762.0,1721.0,68.3963623046875,-41.12730407714844,-48.65101623535156,Left
3576.749755859375,162120,1,1736.0,1739.0,1759.0,2025.0,1707.0,1621.0,1759.0,1743.0,68.3963623046875,-41.12730407714844,-48.65101623535156,Left
3578.749755859375,162120,1,1755.0,1770.0,1755.0,1964.0,1772.0,1845.0,1761.0,1757.0,68.3963623046875,-41.12730407714844,-48.65101623535156,Left
3580.749755859375,162120,1,1791.0,1781.0,1755.0,1867.0,1783.0,1885.0,1764.0,1767.0,68.3963623046875,-41.12730407714844,-48.65101623535156,Left
3582.129638671875,162121,1,1775.0,1765.0,1755.0,1747.0,1757.0,1803.0,1761.0,1756.0,68.3963623046875,-41.12730407714844,-48.65101623535156,Left
3584.129638671875,162121,1,1757.0,1766.0,1759.0,1553.0,1751.0,1757.0,1764.0,1757.0,68.8323974609375,-41.14219665527344,-48.850425720214844,Left
3586.129638671875,162121,1,1775.0,1783.0,1761.0,1525.0,1763.0,1672.0,1787.0,1771.0,68.8323974609375,-41.14219665527344,-48.850425720214844,Left
3588.129638671875,162121,1,1763.0,1757.0,1759.0,1529.0,1747.0,1700.0,1763.0,1748.0,68.8323974609375,-41.14219665527344,-48.850425720214844,Left
3590.129638671875,162121,1,1763.0,1753.0,1758.0,1663.0,1743.0,1803.0,1763.0,1754.0,68.8323974609375,-41.14219665527344,-48.850425720214844,Left
3592.668212890625,162122,1,1747.0,1749.0,1757.0,1721.0,1735.0,1768.0,1761.0,1752.0,68.8323974609375,-41.14219665527344,-48.850425720214844,Left
3594.668212890625,162122,1,1753.0,1763.0,1756.0,1785.0,1739.0,1763.0,1763.0,1753.0,68.8323974609375,-41.14219665527344,-48.850425720214844,Left
3596.668212890625,162122,1,1757.0,1763.0,1759.0,1853.0,1751.0,1740.0,1763.0,1765.0,68.8323974609375,-41.14219665527344,-48.850425720214844,Left
3598.668212890625,162122,1,1717.0,1719.0,1756.0,1903.0,1677.0,1593.0,1757.0,1710.0,68.8323974609375,-41.14219665527344,-48.850425720214844,Left
3600.668212890625,162122,1,1701.0,1725.0,1757.0,1993.0,1689.0,1677.0,1764.0,1720.0,68.8323974609375,-41.14219665527344,-48.850425720214844,Left
3603.34765625,162123,1,1783.0,1800.0,1752.0,1707.0,1781.0,1768.0,1747.0,1752.0,68.8323974609375,-41.14219665527344,-48.850425720214844,Left
3605.34765625,162123,1,1827.0,1835.0,1757.0,1542.0,1912.0,1688.0,1757.0,1751.0,68.8323974609375,-41.14219665527344,-48.850425720214844,Left
3607.34765625,162123,1,1767.0,1747.0,1757.0,1579.0,1723.0,1817.0,1762.0,1758.0,68.8323974609375,-41.14219665527344,-48.850425720214844,Left
3609.34765625,162123,1,1765.0,1749.0,1757.0,1594.0,1749.0,1815.0,1759.0,1767.0,68.8323974609375,-41.14219665527344,-48.850425720214844,Left
3611.34765625,162123,1,1749.0,1779.0,1753.0,1683.0,1765.0,1823.0,1763.0,1759.0,68.8323974609375,-41.14219665527344,-48.850425720214844,Left
3613.2490234375,162124,1,1715.0,1764.0,1759.0,1753.0,1695.0,1757.0,1758.0,1719.0,68.8323974609375,-41.14219665527344,-48.850425720214844,Left
3615.2490234375,162124,1,1773.0,1773.0,1756.0,1851.0,1799.0,1765.0,1763.0,1747.0,68.8323974609375,-41.14219665527344,-48.850425720214844,Left
3617.2490234375,162124,1,1765.0,1752.0,1758.0,2079.0,1725.0,1725.0,1762.0,1746.0,68.8323974609375,-41.14219665527344,-48.850425720214844,Left
3619.2490234375,162124,1,1751.0,1773.0,1758.0,1958.0,1759.0,1749.0,1763.0,1753.0,68.8323974609375,-41.14219665527344,-48.850425720214844,Left
3621.2490234375,162124,1,1765.0,1781.0,1757.0,1862.0,1739.0,1773.0,1761.0,1765.0,68.8323974609375,-41.14219665527344,-48.850425720214844,Left
3623.271728515625,162125,1,1767.0,1756.0,1757.0,1757.0,1749.0,1817.0,1755.0,1754.0,68.8323974609375,-41.14219665527344,-48.850425720214844,Left
3625.271728515625,162125,1,1783.0,1769.0,1756.0,1691.0,1797.0,1723.0,1763.0,1755.0,68.8323974609375,-41.14219665527344,-48.850425720214844,Left
3627.271728515625,162125,1,1819.0,1782.0,1757.0,1461.0,1816.0,1751.0,1757.0,1766.0,68.8323974609375,-41.14219665527344,-48.850425720214844,Left
3629.271728515625,162125,1,1767.0,1772.0,1757.0,1397.0,1749.0,1658.0,1758.0,1717.0,68.8323974609375,-41.14219665527344,-48.850425720214844,Left
3631.271728515625,162125,1,1739.0,1741.0,1758.0,1367.0,1705.0,1696.0,1763.0,1720.0,68.8323974609375,-41.14219665527344,-48.850425720214844,Left
3635.21875,162126,1,1720.0,1728.0,1749.0,1653.0,1672.0,1743.0,1751.0,1717.0,68.8323974609375,-41.14219665527344,-48.850425720214844,Left
3637.21875,162126,1,1735.0,1767.0,1757.0,2005.0,1703.0,1781.0,1763.0,1747.0,68.8323974609375,-41.14219665527344,-48.850425720214844,Left
3639.21875,162126,1,1766.0,1774.0,1759.0,2007.0,1810.0,1787.0,1763.0,1762.0,68.8323974609375,-41.14219665527344,-48.850425720214844,Left
3641.21875,162126,1,1775.0,1805.0,1758.0,2141.0,1791.0,1866.0,1759.0,1771.0,68.8323974609375,-41.14219665527344,-48.850425720214844,Left
3643.21875,162126,1,1784.0,1807.0,1761.0,2195.0,1801.0,1823.0,1757.0,1764.0,68.8323974609375,-41.14219665527344,-48.850425720214844,Left
3641.5927734375,162127,1,1770.0,1787.0,1748.0,2037.0,1747.0,1701.0,1747.0,1747.0,68.8323974609375,-41.14219665527344,-48.850425720214844,Left
3643.5927734375,162127,1,1750.0,1756.0,1757.0,1892.0,1718.0,1644.0,1764.0,1747.0,68.8323974609375,-41.14219665527344,-48.850425720214844,Left
3645.5927734375,162127,1,1741.0,1763.0,1756.0,1670.0,1737.0,1683.0,1763.0,1747.0,68.8323974609375,-41.14219665527344,-48.850425720214844,Left
3647.5927734375,162127,1,1764.0,1813.0,1755.0,1589.0,1733.0,1805.0,1763.0,1753.0,70.27455139160156,-41.1270866394043,-50.01031494140625,Left
3649.5927734375,162127,1,1815.0,1839.0,1757.0,1655.0,1867.0,1747.0,1763.0,1751.0,70.27455139160156,-41.1270866394043,-50.01031494140625,Left
3652.7294921875,162128,1,1735.0,1759.0,1758.0,2007.0,1719.0,1717.0,1759.0,1727.0,70.27455139160156,-41.1270866394043,-50.01031494140625,Left
3654.7294921875,162128,1,1725.0,1749.0,1758.0,2066.0,1718.0,1597.0,1759.0,1727.0,70.27455139160156,-41.1270866394043,-50.01031494140625,Left
3656.7294921875,162128,1,1733.0,1745.0,1755.0,2139.0,1721.0,1733.0,1762.0,1748.0,70.27455139160156,-41.1270866394043,-50.01031494140625,Left
3658.7294921875,162128,1,1743.0,1755.0,1765.0,2063.0,1705.0,1837.0,1761.0,1750.0,70.27455139160156,-41.1270866394043,-50.01031494140625,Left
3660.7294921875,162128,1,1761.0,1787.0,1756.0,2020.0,1763.0,1823.0,1764.0,1751.0,70.27455139160156,-41.1270866394043,-50.01031494140625,Left
3678.342041015625,162129,1,1789.0,1829.0,1735.0,1739.0,1851.0,1799.0,1753.0,1755.0,70.27455139160156,-41.1270866394043,-50.01031494140625,Left
3680.342041015625,162129,1,1767.0,1781.0,1764.0,1401.0,1759.0,1738.0,1763.0,1749.0,70.27455139160156,-41.1270866394043,-50.01031494140625,Left
3682.342041015625,162129,1,1771.0,1775.0,1763.0,1099.0,1756.0,1749.0,1759.0,1757.0,70.27455139160156,-41.1270866394043,-50.01031494140625,Left
3684.342041015625,162129,1,1755.0,1764.0,1761.0,1087.0,1733.0,1725.0,1761.0,1753.0,70.27455139160156,-41.1270866394043,-50.01031494140625,Left
3686.342041015625,162129,1,1753.0,1791.0,1757.0,1255.0,1735.0,1755.0,1759.0,1749.0,70.27455139160156,-41.1270866394043,-50.01031494140625,Left
3678.342041015625,162130,1,1759.0,1787.0,1755.0,1768.0,1768.0,1755.0,1749.0,1747.0,70.27455139160156,-41.1270866394043,-50.01031494140625,Left
3680.342041015625,162130,1,1767.0,1742.0,1763.0,2040.0,1779.0,1763.0,1763.0,1745.0,70.27455139160156,-41.1270866394043,-50.01031494140625,Left
3682.342041015625,162130,1,1762.0,1763.0,1757.0,2215.0,1747.0,1746.0,1765.0,1749.0,70.27455139160156,-41.1270866394043,-50.01031494140625,Left
3684.342041015625,162130,1,1748.0,1753.0,1759.0,2189.0,1742.0,1739.0,1758.0,1741.0,70.27455139160156,-41.1270866394043,-50.01031494140625,Left
3686.342041015625,162130,1,1753.0,1743.0,1759.0,2015.0,1727.0,1748.0,1759.0,1749.0,70.27455139160156,-41.1270866394043,-50.01031494140625,Left
3681.39599609375,162131,1,1759.0,1755.0,1757.0,1807.0,1723.0,1756.0,1759.0,1749.0,70.27455139160156,-41.1270866394043,-50.01031494140625,Left
3683.39599609375,162131,1,1756.0,1763.0,1757.0,1752.0,1736.0,1767.0,1759.0,1753.0,70.27455139160156,-41.1270866394043,-50.01031494140625,Left
3685.39599609375,162131,1,1787.0,1789.0,1757.0,1519.0,1813.0,1753.0,1759.0,1757.0,70.27455139160156,-41.1270866394043,-50.01031494140625,Left
3687.39599609375,162131,1,1755.0,1779.0,1755.0,1427.0,1742.0,1739.0,1765.0,1747.0,70.27455139160156,-41.1270866394043,-50.01031494140625,Left
3689.39599609375,162131,1,1749.0,1757.0,1761.0,1481.0,1727.0,1715.0,1764.0,1737.0,70.27455139160156,-41.1270866394043,-50.01031494140625,Left
3693.603515625,162132,1,1746.0,1755.0,1754.0,1853.0,1735.0,1745.0,1763.0,1743.0,70.27455139160156,-41.1270866394043,-50.01031494140625,Left
3695.603515625,162132,1,1755.0,1742.0,1757.0,1917.0,1740.0,1761.0,1763.0,1750.0,70.27455139160156,-41.1270866394043,-50.01031494140625,Left
3697.603515625,162132,1,1753.0,1737.0,1757.0,2141.0,1753.0,1752.0,1763.0,1755.0,70.27455139160156,-41.1270866394043,-50.01031494140625,Left
3699.603515625,162132,1,1765.0,1764.0,1753.0,2036.0,1755.0,1753.0,1763.0,1753.0,70.27455139160156,-41.1270866394043,-50.01031494140625,Left
3701.603515625,162132,1,1757.0,1779.0,1757.0,2045.0,1755.0,1751.0,1759.0,1753.0,70.27455139160156,-41.1270866394043,-50.01031494140625,Left
3704.604248046875,162133,1,1747.0,1767.0,1750.0,1684.0,1741.0,1775.0,1757.0,1739.0,70.27455139160156,-41.1270866394043,-50.01031494140625,Left
3706.604248046875,162133,1,1769.0,1753.0,1753.0,1565.0,1767.0,1779.0,1759.0,1759.0,70.27455139160156,-41.1270866394043,-50.01031494140625,Left
3708.604248046875,162133,1,1780.0,1766.0,1757.0,1352.0,1804.0,1779.0,1763.0,1757.0,70.27455139160156,-41.1270866394043,-50.01031494140625,Left
3710.604248046875,162133,1,1757.0,1754.0,1758.0,1279.0,1751.0,1707.0,1762.0,1755.0,70.27455139160156,-41.1270866394043,-50.01031494140625,Left
3712.604248046875,162133,1,1763.0,1768.0,1757.0,1293.0,1753.0,1721.0,1763.0,1739.0,70.27455139160156,-41.1270866394043,-50.01031494140625,Left
3711.828369140625,162134,1,1749.0,1749.0,1755.0,1877.0,1740.0,1735.0,1762.0,1723.0,70.27455139160156,-41.1270866394043,-50.01031494140625,Left
3713.828369140625,162134,1,1741.0,1747.0,1757.0,2213.0,1735.0,1749.0,1757.0,1742.0,72.52289581298828,-42.02530288696289,-52.127193450927734,Left
3715.828369140625,162134,1,1755.0,1723.0,1757.0,2323.0,1747.0,1725.0,1762.0,1747.0,72.52289581298828,-42.02530288696289,-52.127193450927734,Left
3717.828369140625,162134,1,1765.0,1727.0,1758.0,2170.0,1759.0,1735.0,1759.0,1752.0,72.52289581298828,-42.02530288696289,-52.127193450927734,Left
3719.828369140625,162134,1,1764.0,1761.0,1763.0,2011.0,1759.0,1773.0,1757.0,1752.0,72.52289581298828,-42.02530288696289,-52.127193450927734,Left
3764.930419921875,162135,1,1756.0,1781.0,1753.0,1768.0,1754.0,1785.0,1765.0,1756.0,72.52289581298828,-42.02530288696289,-52.127193450927734,Left
3766.930419921875,162135,1,1767.0,1791.0,1757.0,1651.0,1743.0,1773.0,1763.0,1753.0,72.52289581298828,-42.02530288696289,-52.127193450927734,Left
3768.930419921875,162135,1,1753.0,1762.0,1755.0,1277.0,1733.0,1762.0,1759.0,1755.0,72.52289581298828,-42.02530288696289,-52.127193450927734,Left
3770.930419921875,162135,1,1748.0,1758.0,1755.0,1191.0,1715.0,1754.0,1762.0,1755.0,72.52289581298828,-42.02530288696289,-52.127193450927734,Left
3772.930419921875,162135,1,1769.0,1803.0,1755.0,1401.0,1776.0,1727.0,1764.0,1751.0,72.52289581298828,-42.02530288696289,-52.127193450927734,Left
3765.958251953125,162136,1,1775.0,1783.0,1757.0,2087.0,1781.0,1721.0,1757.0,1743.0,72.52289581298828,-42.02530288696289,-52.127193450927734,Left
3767.958251953125,162136,1,1747.0,1748.0,1757.0,2381.0,1739.0,1750.0,1757.0,1741.0,72.52289581298828,-42.02530288696289,-52.127193450927734,Left
3769.958251953125,162136,1,1764.0,1773.0,1761.0,2380.0,1784.0,1757.0,1765.0,1751.0,72.52289581298828,-42.02530288696289,-52.127193450927734,Left
3771.958251953125,162136,1,1763.0,1764.0,1757.0,2245.0,1752.0,1773.0,1765.0,1758.0,72.52289581298828,-42.02530288696289,-52.127193450927734,Left
3773.958251953125,162136,1,1756.0,1755.0,1759.0,1977.0,1752.0,1743.0,1759.0,1751.0,72.52289581298828,-42.02530288696289,-52.127193450927734,Left
3765.958251953125,162137,1,1755.0,1754.0,1750.0,1695.0,1749.0,1765.0,1763.0,1757.0,72.52289581298828,-42.02530288696289,-52.127193450927734,Left
3767.958251953125,162137,1,1757.0,1782.0,1751.0,1623.0,1750.0,1755.0,1757.0,1757.0,72.52289581298828,-42.02530288696289,-52.127193450927734,Left
3769.958251953125,162137,1,1765.0,1810.0,1756.0,1287.0,1757.0,1763.0,1763.0,1754.0,72.52289581298828,-42.02530288696289,-52.127193450927734,Left
3771.958251953125,162137,1,1755.0,1782.0,1758.0,1189.0,1749.0,1711.0,1763.0,1740.0,72.52289581298828,-42.02530288696289,-52.127193450927734,Left
3773.958251953125,162137,1,1753.0,1779.0,1759.0,1257.0,1745.0,1738.0,1764.0,1741.0,72.52289581298828,-42.02530288696289,-52.127193450927734,Left
3766.95947265625,162138,1,1751.0,1774.0,1752.0,1775.0,1740.0,1757.0,1761.0,1747.0,72.52289581298828,-42.02530288696289,-52.127193450927734,Left
3768.95947265625,162138,1,1759.0,1765.0,1759.0,2065.0,1749.0,1756.0,1763.0,1754.0,72.52289581298828,-42.02530288696289,-52.127193450927734,Left
3770.95947265625,162138,1,1764.0,1752.0,1757.0,2237.0,1753.0,1753.0,1761.0,1753.0,72.52289581298828,-42.02530288696289,-52.127193450927734,Left
3772.95947265625,162138,1,1768.0,1753.0,1756.0,1975.0,1755.0,1765.0,1763.0,1757.0,72.52289581298828,-42.02530288696289,-52.127193450927734,Left
3774.95947265625,162138,1,1767.0,1755.0,1757.0,1869.0,1752.0,1745.0,1759.0,1751.0,72.52289581298828,-42.02530288696289,-52.127193450927734,Left
3766.95947265625,162139,1,1769.0,1753.0,1749.0,1695.0,1754.0,1753.0,1758.0,1741.0,72.52289581298828,-42.02530288696289,-52.127193450927734,Left
3768.95947265625,162139,1,1768.0,1753.0,1758.0,1549.0,1751.0,1753.0,1759.0,1752.0,72.52289581298828,-42.02530288696289,-52.127193450927734,Left
3770.95947265625,162139,1,1757.0,1753.0,1755.0,1273.0,1753.0,1758.0,1763.0,1752.0,72.52289581298828,-42.02530288696289,-52.127193450927734,Left
3772.95947265625,162139,1,1756.0,1752.0,1754.0,1133.0,1755.0,1765.0,1763.0,1751.0,72.52289581298828,-42.02530288696289,-52.127193450927734,Left
3774.95947265625,162139,1,1763.0,1749.0,1755.0,1379.0,1751.0,1755.0,1762.0,1751.0,72.52289581298828,-42.02530288696289,-52.127193450927734,Left
3797.257568359375,162140,1,1756.0,1740.0,1757.0,1955.0,1739.0,1739.0,1747.0,1737.0,72.52289581298828,-42.02530288696289,-52.127193450927734,Left
3799.257568359375,162140,1,1751.0,1736.0,1756.0,2343.0,1750.0,1736.0,1763.0,1742.0,72.52289581298828,-42.02530288696289,-52.127193450927734,Left
3801.257568359375,162140,1,1757.0,1738.0,1759.0,2547.0,1751.0,1751.0,1764.0,1751.0,72.52289581298828,-42.02530288696289,-52.127193450927734,Left
3803.257568359375,162140,1,1757.0,1727.0,1758.0,2359.0,1749.0,1749.0,1763.0,1754.0,72.52289581298828,-42.02530288696289,-52.127193450927734,Left
3805.257568359375,162140,1,1767.0,1739.0,1758.0,2208.0,1755.0,1756.0,1757.0,1751.0,75.16249084472656,-43.294227600097656,-53.6994743347168,Left
3798.28662109375,162141,1,1763.0,1727.0,1757.0,1928.0,1746.0,1751.0,1756.0,1741.0,75.16249084472656,-43.294227600097656,-53.6994743347168,Left
3800.28662109375,162141,1,1757.0,1743.0,1756.0,1721.0,1751.0,1752.0,1763.0,1745.0,75.16249084472656,-43.294227600097656,-53.6994743347168,Left
3802.28662109375,162141,1,1759.0,1755.0,1757.0,1355.0,1755.0,1753.0,1761.0,1752.0,75.16249084472656,-43.294227600097656,-53.6994743347168,Left
3804.28662109375,162141,1,1759.0,1753.0,1753.0,1237.0,1757.0,1751.0,1759.0,1740.0,75.16249084472656,-43.294227600097656,-53.6994743347168,Left
3806.28662109375,162141,1,1763.0,1752.0,1759.0,1355.0,1750.0,1754.0,1761.0,1749.0,75.16249084472656,-43.294227600097656,-53.6994743347168,Left
3798.28662109375,162142,1,1752.0,1736.0,1756.0,1659.0,1746.0,1755.0,1763.0,1743.0,75.16249084472656,-43.294227600097656,-53.6994743347168,Left
3800.28662109375,162142,1,1757.0,1747.0,1756.0,2079.0,1751.0,1771.0,1764.0,1754.0,75.16249084472656,-43.294227600097656,-53.6994743347168,Left
3802.28662109375,162142,1,1757.0,1748.0,1761.0,2093.0,1751.0,1751.0,1764.0,1749.0,75.16249084472656,-43.294227600097656,-53.6994743347168,Left
3804.28662109375,162142,1,1771.0,1749.0,1755.0,1893.0,1753.0,1742.0,1759.0,1751.0,75.16249084472656,-43.294227600097656,-53.6994743347168,Left
3806.28662109375,162142,1,1767.0,1756.0,1758.0,1740.0,1755.0,1748.0,1763.0,1753.0,75.16249084472656,-43.294227600097656,-53.6994743347168,Left
3805.031494140625,162143,1,1767.0,1767.0,1753.0,1686.0,1754.0,1723.0,1753.0,1740.0,75.16249084472656,-43.294227600097656,-53.6994743347168,Left
3807.031494140625,162143,1,1757.0,1758.0,1759.0,1611.0,1743.0,1753.0,1759.0,1747.0,75.16249084472656,-43.294227600097656,-53.6994743347168,Left
3809.031494140625,162143,1,1757.0,1759.0,1757.0,1350.0,1752.0,1755.0,1763.0,1750.0,75.16249084472656,-43.294227600097656,-53.6994743347168,Left
3811.031494140625,162143,1,1755.0,1768.0,1757.0,1234.0,1764.0,1750.0,1764.0,1751.0,75.16249084472656,-43.294227600097656,-53.6994743347168,Left
3813.031494140625,162143,1,1763.0,1756.0,1759.0,1476.0,1753.0,1749.0,1763.0,1749.0,75.16249084472656,-43.294227600097656,-53.6994743347168,Left
3813.054443359375,162144,1,1763.0,1751.0,1755.0,1799.0,1747.0,1750.0,1763.0,1751.0,75.16249084472656,-43.294227600097656,-53.6994743347168,Left
3815.054443359375,162144,1,1761.0,1752.0,1759.0,2076.0,1751.0,1755.0,1759.0,1749.0,75.16249084472656,-43.294227600097656,-53.6994743347168,Left
3817.054443359375,162144,1,1765.0,1763.0,1763.0,2259.0,1751.0,1757.0,1759.0,1752.0,75.16249084472656,-43.294227600097656,-53.6994743347168,Left
3819.054443359375,162144,1,1751.0,1757.0,1757.0,2121.0,1699.0,1765.0,1763.0,1755.0,75.16249084472656,-43.294227600097656,-53.6994743347168,Left
3821.054443359375,162144,1,1752.0,1763.0,1757.0,1855.0,1753.0,1763.0,1763.0,1751.0,75.16249084472656,-43.294227600097656,-53.6994743347168,Left
3821.397216796875,162145,1,1759.0,1759.0,1756.0,1643.0,1752.0,1749.0,1757.0,1736.0,75.16249084472656,-43.294227600097656,-53.6994743347168,Left
3823.397216796875,162145,1,1746.0,1756.0,1757.0,1443.0,1751.0,1723.0,1759.0,1749.0,75.16249084472656,-43.294227600097656,-53.6994743347168,Left
3825.397216796875,162145,1,1763.0,1771.0,1758.0,1115.0,1763.0,1721.0,1763.0,1751.0,75.16249084472656,-43.294227600097656,-53.6994743347168,Left
3827.397216796875,162145,1,1756.0,1779.0,1755.0,1123.0,1747.0,1726.0,1759.0,1749.0,75.16249084472656,-43.294227600097656,-53.6994743347168,Left
3829.397216796875,162145,1,1752.0,1780.0,1757.0,1349.0,1753.0,1739.0,1763.0,1743.0,75.16249084472656,-43.294227600097656,-53.6994743347168,Left
3833.001953125,162146,1,1741.0,1749.0,1748.0,2203.0,1735.0,1759.0,1763.0,1741.0,75.16249084472656,-43.294227600097656,-53.6994743347168,Left
3835.001953125,162146,1,1756.0,1755.0,1757.0,2567.0,1741.0,1769.0,1763.0,1750.0,75.16249084472656,-43.294227600097656,-53.6994743347168,Left
3837.001953125,162146,1,1758.0,1763.0,1757.0,2765.0,1749.0,1741.0,1763.0,1752.0,75.16249084472656,-43.294227600097656,-53.6994743347168,Left
3839.001953125,162146,1,1765.0,1764.0,1755.0,2555.0,1763.0,1747.0,1763.0,1750.0,75.16249084472656,-43.294227600097656,-53.6994743347168,Left
3841.001953125,162146,1,1762.0,1755.0,1757.0,2328.0,1753.0,1765.0,1759.0,1755.0,75.16249084472656,-43.294227600097656,-53.6994743347168,Left
3842.91015625,162147,1,1770.0,1755.0,1757.0,2036.0,1758.0,1766.0,1763.0,1765.0,75.16249084472656,-43.294227600097656,-53.6994743347168,Left
3844.91015625,162147,1,1764.0,1755.0,1759.0,1708.0,1763.0,1764.0,1761.0,1763.0,81.80426025390625,-44.740291595458984,-53.638214111328125,Left
3846.91015625,162147,1,1759.0,1758.0,1758.0,1183.0,1752.0,1750.0,1759.0,1747.0,81.80426025390625,-44.740291595458984,-53.638214111328125,Left
3848.91015625,162147,1,1747.0,1764.0,1758.0,979.0,1742.0,1754.0,1763.0,1737.0,81.80426025390625,-44.740291595458984,-53.638214111328125,Left
3850.91015625,162147,1,1745.0,1753.0,1757.0,1189.0,1743.0,1735.0,1763.0,1741.0,81.80426025390625,-44.740291595458984,-53.638214111328125,Left
3853.679443359375,162148,1,1753.0,1733.0,1753.0,1690.0,1747.0,1739.0,1751.0,1727.0,81.80426025390625,-44.740291595458984,-53.638214111328125,Left
3855.679443359375,162148,1,1765.0,1691.0,1757.0,1919.0,1751.0,1763.0,1763.0,1752.0,81.80426025390625,-44.740291595458984,-53.638214111328125,Left
3857.679443359375,162148,1,1765.0,1663.0,1755.0,2233.0,1749.0,1747.0,1762.0,1749.0,81.80426025390625,-44.740291595458984,-53.638214111328125,Left
3859.679443359375,162148,1,1763.0,1696.0,1757.0,2164.0,1753.0,1764.0,1763.0,1749.0,81.80426025390625,-44.740291595458984,-53.638214111328125,Left
3861.679443359375,162148,1,1759.0,1713.0,1757.0,1915.0,1753.0,1759.0,1763.0,1748.0,81.80426025390625,-44.740291595458984,-53.638214111328125,Left
3862.9794921875,162149,1,1761.0,1725.0,1755.0,1444.0,1749.0,1751.0,1742.0,1753.0,81.80426025390625,-44.740291595458984,-53.638214111328125,Left
3864.9794921875,162149,1,1754.0,1739.0,1758.0,1299.0,1746.0,1752.0,1759.0,1747.0,81.80426025390625,-44.740291595458984,-53.638214111328125,Left
3866.9794921875,162149,1,1766.0,1769.0,1759.0,829.0,1779.0,1755.0,1755.0,1751.0,81.80426025390625,-44.740291595458984,-53.638214111328125,Left
3868.9794921875,162149,1,1757.0,1765.0,1756.0,738.0,1755.0,1755.0,1763.0,1752.0,81.80426025390625,-44.740291595458984,-53.638214111328125,Left
3870.9794921875,162149,1,1765.0,1755.0,1759.0,1067.0,1753.0,1747.0,1763.0,1748.0,81.80426025390625,-44.740291595458984,-53.638214111328125,Left
3871.54833984375,162150,1,1757.0,1756.0,1753.0,1711.0,1751.0,1749.0,1755.0,1740.0,81.80426025390625,-44.740291595458984,-53.638214111328125,Left
3873.54833984375,162150,1,1753.0,1754.0,1757.0,2110.0,1737.0,1750.0,1755.0,1747.0,81.80426025390625,-44.740291595458984,-53.638214111328125,Left
3875.54833984375,162150,1,1750.0,1768.0,1757.0,2346.0,1749.0,1764.0,1762.0,1752.0,81.80426025390625,-44.740291595458984,-53.638214111328125,Left
3877.54833984375,162150,1,1751.0,1771.0,1758.0,2476.0,1745.0,1723.0,1763.0,1743.0,81.80426025390625,-44.740291595458984,-53.638214111328125,Left
3879.54833984375,162150,1,1757.0,1771.0,1757.0,2311.0,1753.0,1756.0,1763.0,1755.0,81.80426025390625,-44.740291595458984,-53.638214111328125,Left
3884.52734375,162151,1,1757.0,1767.0,1749.0,1932.0,1751.0,1763.0,1763.0,1758.0,81.80426025390625,-44.740291595458984,-53.638214111328125,Left
3886.52734375,162151,1,1763.0,1767.0,1757.0,1780.0,1752.0,1769.0,1763.0,1753.0,81.80426025390625,-44.740291595458984,-53.638214111328125,Left
3888.52734375,162151,1,1751.0,1769.0,1757.0,1400.0,1747.0,1743.0,1757.0,1746.0,81.80426025390625,-44.740291595458984,-53.638214111328125,Left
3890.52734375,162151,1,1767.0,1761.0,1757.0,1227.0,1754.0,1752.0,1762.0,1756.0,81.80426025390625,-44.740291595458984,-53.638214111328125,Left
3892.52734375,162151,1,1769.0,1765.0,1759.0,1272.0,1749.0,1757.0,1763.0,1749.0,81.80426025390625,-44.740291595458984,-53.638214111328125,Left
3915.4794921875,162152,1,1755.0,1765.0,1754.0,1783.0,1737.0,1735.0,1751.0,1739.0,81.80426025390625,-44.740291595458984,-53.638214111328125,Left
3917.4794921875,162152,1,1745.0,1765.0,1751.0,2195.0,1751.0,1751.0,1763.0,1754.0,81.80426025390625,-44.740291595458984,-53.638214111328125,Left
3919.4794921875,162152,1,1759.0,1761.0,1755.0,2323.0,1738.0,1755.0,1762.0,1751.0,81.80426025390625,-44.740291595458984,-53.638214111328125,Left
3921.4794921875,162152,1,1756.0,1765.0,1758.0,2194.0,1739.0,1751.0,1763.0,1746.0,81.80426025390625,-44.740291595458984,-53.638214111328125,Left
3923.4794921875,162152,1,1759.0,1765.0,1756.0,2010.0,1741.0,1737.0,1763.0,1753.0,81.80426025390625,-44.740291595458984,-53.638214111328125,Left
3915.4794921875,162153,1,1755.0,1757.0,1751.0,1735.0,1735.0,1755.0,1753.0,1752.0,81.80426025390625,-44.740291595458984,-53.638214111328125,Left
3917.4794921875,162153,1,1757.0,1765.0,1756.0,1317.0,1742.0,1727.0,1763.0,1743.0,81.80426025390625,-44.740291595458984,-53.638214111328125,Left
3919.4794921875,162153,1,1759.0,1772.0,1756.0,995.0,1749.0,1739.0,1763.0,1751.0,81.80426025390625,-44.740291595458984,-53.638214111328125,Left
3921.4794921875,162153,1,1758.0,1773.0,1757.0,955.0,1755.0,1749.0,1759.0,1741.0,81.80426025390625,-44.740291595458984,-53.638214111328125,Left
3923.4794921875,162153,1,1763.0,1740.0,1756.0,1127.0,1740.0,1767.0,1763.0,1753.0,86.55097961425781,-45.95793914794922,-51.97723388671875,Left
3916.4892578125,162154,1,1755.0,1725.0,1757.0,1657.0,1737.0,1753.0,1763.0,1748.0,86.55097961425781,-45.95793914794922,-51.97723388671875,Left
3918.4892578125,162154,1,1757.0,1720.0,1756.0,2183.0,1737.0,1755.0,1763.0,1752.0,86.55097961425781,-45.95793914794922,-51.97723388671875,Left
3920.4892578125,162154,1,1756.0,1725.0,1757.0,2471.0,1743.0,1757.0,1759.0,1752.0,86.55097961425781,-45.95793914794922,-51.97723388671875,Left
3922.4892578125,162154,1,1753.0,1723.0,1757.0,2403.0,1751.0,1759.0,1762.0,1740.0,86.55097961425781,-45.95793914794922,-51.97723388671875,Left
3924.4892578125,162154,1,1761.0,1721.0,1755.0,2151.0,1759.0,1767.0,1763.0,1759.0,86.55097961425781,-45.95793914794922,-51.97723388671875,Left
3923.47900390625,162155,1,1754.0,1740.0,1750.0,1979.0,1754.0,1704.0,1753.0,1736.0,86.55097961425781,-45.95793914794922,-51.97723388671875,Left
3925.47900390625,162155,1,1755.0,1749.0,1757.0,1568.0,1752.0,1745.0,1763.0,1753.0,86.55097961425781,-45.95793914794922,-51.97723388671875,Left
3927.47900390625,162155,1,1759.0,1767.0,1757.0,1280.0,1755.0,1755.0,1761.0,1755.0,86.55097961425781,-45.95793914794922,-51.97723388671875,Left
3929.47900390625,162155,1,1764.0,1771.0,1756.0,1193.0,1749.0,1766.0,1757.0,1751.0,86.55097961425781,-45.95793914794922,-51.97723388671875,Left
3931.47900390625,162155,1,1763.0,1751.0,1757.0,1334.0,1753.0,1763.0,1759.0,1748.0,86.55097961425781,-45.95793914794922,-51.97723388671875,Left
3937.79345703125,162156,1,1758.0,1743.0,1757.0,1881.0,1753.0,1757.0,1759.0,1748.0,86.55097961425781,-45.95793914794922,-51.97723388671875,Left
3939.79345703125,162156,1,1755.0,1738.0,1759.0,2211.0,1753.0,1746.0,1762.0,1752.0,86.55097961425781,-45.95793914794922,-51.97723388671875,Left
3941.79345703125,162156,1,1756.0,1717.0,1758.0,2221.0,1755.0,1711.0,1763.0,1747.0,86.55097961425781,-45.95793914794922,-51.97723388671875,Left
3943.79345703125,162156,1,1753.0,1717.0,1756.0,2175.0,1753.0,1754.0,1763.0,1753.0,86.55097961425781,-45.95793914794922,-51.97723388671875,Left
3945.79345703125,162156,1,1759.0,1719.0,1757.0,1982.0,1759.0,1764.0,1763.0,1757.0,86.55097961425781,-45.95793914794922,-51.97723388671875,Left
3942.77978515625,162157,1,1766.0,1711.0,1758.0,1690.0,1751.0,1771.0,1759.0,1751.0,86.55097961425781,-45.95793914794922,-51.97723388671875,Left
3944.77978515625,162157,1,1755.0,1723.0,1758.0,1563.0,1752.0,1755.0,1764.0,1746.0,86.55097961425781,-45.95793914794922,-51.97723388671875,Left
3946.77978515625,162157,1,1767.0,1740.0,1757.0,1197.0,1757.0,1748.0,1761.0,1753.0,86.55097961425781,-45.95793914794922,-51.97723388671875,Left
3948.77978515625,162157,1,1765.0,1727.0,1748.0,970.0,1747.0,1741.0,1763.0,1747.0,86.55097961425781,-45.95793914794922,-51.97723388671875,Left
3950.77978515625,162157,1,1753.0,1723.0,1757.0,1245.0,1743.0,1753.0,1758.0,1750.0,86.55097961425781,-45.95793914794922,-51.97723388671875,Left
3953.4130859375,162158,1,1753.0,1719.0,1755.0,1897.0,1738.0,1751.0,1763.0,1745.0,86.55097961425781,-45.95793914794922,-51.97723388671875,Left
3955.4130859375,162158,1,1764.0,1737.0,1758.0,2279.0,1749.0,1757.0,1759.0,1764.0,86.55097961425781,-45.95793914794922,-51.97723388671875,Left
3957.4130859375,162158,1,1758.0,1727.0,1756.0,2535.0,1739.0,1750.0,1763.0,1739.0,86.55097961425781,-45.95793914794922,-51.97723388671875,Left
3959.4130859375,162158,1,1757.0,1737.0,1757.0,2345.0,1749.0,1753.0,1763.0,1752.0,86.55097961425781,-45.95793914794922,-51.97723388671875,Left
3961.4130859375,162158,1,1761.0,1739.0,1759.0,2147.0,1747.0,1751.0,1764.0,1745.0,86.55097961425781,-45.95793914794922,-51.97723388671875,Left
3961.379150390625,162159,1,1753.0,1745.0,1758.0,1821.0,1757.0,1743.0,1763.0,1742.0,86.55097961425781,-45.95793914794922,-51.97723388671875,Left
3963.379150390625,162159,1,1755.0,1751.0,1763.0,1567.0,1758.0,1747.0,1759.0,1755.0,86.55097961425781,-45.95793914794922,-51.97723388671875,Left
3965.379150390625,162159,1,1763.0,1772.0,1763.0,1176.0,1763.0,1759.0,1763.0,1753.0,86.55097961425781,-45.95793914794922,-51.97723388671875,Left
3967.379150390625,162159,1,1766.0,1784.0,1759.0,1098.0,1759.0,1763.0,1761.0,1749.0,86.55097961425781,-45.95793914794922,-51.97723388671875,Left
3969.379150390625,162159,1,1755.0,1776.0,1759.0,1237.0,1746.0,1763.0,1763.0,1739.0,86.55097961425781,-45.95793914794922,-51.97723388671875,Left
3971.24462890625,162160,1,1767.0,1783.0,1753.0,1846.0,1755.0,1749.0,1764.0,1757.0,86.55097961425781,-45.95793914794922,-51.97723388671875,Left
3973.24462890625,162160,1,1765.0,1769.0,1756.0,2211.0,1746.0,1743.0,1765.0,1751.0,84.83641052246094,-47.57754135131836,-48.02690887451172,Left
3975.24462890625,162160,1,1758.0,1765.0,1757.0,2357.0,1757.0,1752.0,1763.0,1759.0,84.83641052246094,-47.57754135131836,-48.02690887451172,Left
3977.24462890625,162160,1,1753.0,1775.0,1759.0,2327.0,1755.0,1769.0,1759.0,1752.0,84.83641052246094,-47.57754135131836,-48.02690887451172,Left
3979.24462890625,162160,1,1752.0,1775.0,1756.0,2039.0,1751.0,1727.0,1763.0,1737.0,84.83641052246094,-47.57754135131836,-48.02690887451172,Left
3981.81201171875,162161,1,1755.0,1769.0,1761.0,1833.0,1757.0,1750.0,1763.0,1753.0,84.83641052246094,-47.57754135131836,-48.02690887451172,Left
3983.81201171875,162161,1,1762.0,1786.0,1759.0,1550.0,1764.0,1757.0,1763.0,1751.0,84.83641052246094,-47.57754135131836,-48.02690887451172,Left
3985.81201171875,162161,1,1768.0,1787.0,1757.0,1267.0,1762.0,1751.0,1763.0,1741.0,84.83641052246094,-47.57754135131836,-48.02690887451172,Left
3987.81201171875,162161,1,1759.0,1787.0,1757.0,1051.0,1757.0,1755.0,1765.0,1751.0,84.83641052246094,-47.57754135131836,-48.02690887451172,Left
3989.81201171875,162161,1,1763.0,1787.0,1759.0,1229.0,1755.0,1753.0,1759.0,1752.0,84.83641052246094,-47.57754135131836,-48.02690887451172,Left
3992.009033203125,162162,1,1755.0,1780.0,1765.0,1771.0,1750.0,1751.0,1761.0,1751.0,84.83641052246094,-47.57754135131836,-48.02690887451172,Left
3994.009033203125,162162,1,1769.0,1782.0,1755.0,2101.0,1753.0,1757.0,1762.0,1755.0,84.83641052246094,-47.57754135131836,-48.02690887451172,Left
3996.009033203125,162162,1,1748.0,1769.0,1759.0,2379.0,1739.0,1751.0,1763.0,1748.0,84.83641052246094,-47.57754135131836,-48.02690887451172,Left
3998.009033203125,162162,1,1757.0,1771.0,1757.0,2301.0,1752.0,1757.0,1763.0,1753.0,84.83641052246094,-47.57754135131836,-48.02690887451172,Left
4000.009033203125,162162,1,1747.0,1767.0,1757.0,2157.0,1749.0,1742.0,1763.0,1737.0,84.83641052246094,-47.57754135131836,-48.02690887451172,Left
4001.392578125,162163,1,1767.0,1772.0,1749.0,1781.0,1757.0,1735.0,1764.0,1751.0,84.83641052246094,-47.57754135131836,-48.02690887451172,Left
4003.392578125,162163,1,1756.0,1774.0,1759.0,1626.0,1757.0,1752.0,1763.0,1753.0,84.83641052246094,-47.57754135131836,-48.02690887451172,Left
4005.392578125,162163,1,1755.0,1776.0,1757.0,1257.0,1753.0,1753.0,1762.0,1751.0,84.83641052246094,-47.57754135131836,-48.02690887451172,Left
4007.392578125,162163,1,1763.0,1773.0,1757.0,1071.0,1751.0,1758.0,1763.0,1751.0,84.83641052246094,-47.57754135131836,-48.02690887451172,Left
4009.392578125,162163,1,1757.0,1782.0,1754.0,1225.0,1755.0,1755.0,1759.0,1751.0,84.83641052246094,-47.57754135131836,-48.02690887451172,Left
4041.380126953125,162164,1,1755.0,1780.0,1752.0,1883.0,1749.0,1752.0,1757.0,1749.0,84.83641052246094,-47.57754135131836,-48.02690887451172,Left
4043.380126953125,162164,1,1754.0,1781.0,1756.0,2155.0,1749.0,1755.0,1757.0,1751.0,84.83641052246094,-47.57754135131836,-48.02690887451172,Left
4045.380126953125,162164,1,1755.0,1779.0,1757.0,2279.0,1750.0,1750.0,1758.0,1747.0,84.83641052246094,-47.57754135131836,-48.02690887451172,Left
4047.380126953125,162164,1,1747.0,1779.0,1757.0,2203.0,1755.0,1743.0,1764.0,1747.0,84.83641052246094,-47.57754135131836,-48.02690887451172,Left
4049.380126953125,162164,1,1752.0,1785.0,1759.0,2043.0,1765.0,1767.0,1763.0,1757.0,84.83641052246094,-47.57754135131836,-48.02690887451172,Left
4042.392578125,162165,1,1753.0,1786.0,1757.0,1774.0,1755.0,1757.0,1759.0,1756.0,84.83641052246094,-47.57754135131836,-48.02690887451172,Left
4044.392578125,162165,1,1755.0,1784.0,1752.0,1506.0,1755.0,1739.0,1761.0,1747.0,84.83641052246094,-47.57754135131836,-48.02690887451172,Left
4046.392578125,162165,1,1745.0,1773.0,1755.0,1131.0,1758.0,1748.0,1763.0,1749.0,84.83641052246094,-47.57754135131836,-48.02690887451172,Left
4048.392578125,162165,1,1759.0,1771.0,1757.0,999.0,1757.0,1767.0,1763.0,1763.0,84.83641052246094,-47.57754135131836,-48.02690887451172,Left
4050.392578125,162165,1,1768.0,1773.0,1757.0,1237.0,1755.0,1735.0,1763.0,1743.0,84.83641052246094,-47.57754135131836,-48.02690887451172,Left
4042.392578125,162166,1,1755.0,1772.0,1758.0,1895.0,1746.0,1748.0,1763.0,1739.0,84.83641052246094,-47.57754135131836,-48.02690887451172,Left
4044.392578125,162166,1,1763.0,1789.0,1758.0,2153.0,1749.0,1764.0,1764.0,1751.0,84.83641052246094,-47.57754135131836,-48.02690887451172,Left
4046.392578125,162166,1,1755.0,1771.0,1759.0,2245.0,1751.0,1751.0,1757.0,1747.0,84.83641052246094,-47.57754135131836,-48.02690887451172,Left
4048.392578125,162166,1,1749.0,1771.0,1757.0,2259.0,1755.0,1763.0,1763.0,1753.0,83.357666015625,-48.77005386352539,-44.146690368652344,Left
4050.392578125,162166,1,1759.0,1768.0,1757.0,1989.0,1758.0,1763.0,1758.0,1755.0,83.357666015625,-48.77005386352539,-44.146690368652344,Left
4044.015625,162167,1,1759.0,1771.0,1761.0,1833.0,1757.0,1769.0,1763.0,1752.0,83.357666015625,-48.77005386352539,-44.146690368652344,Left
4046.015625,162167,1,1759.0,1769.0,1755.0,1660.0,1752.0,1763.0,1765.0,1742.0,83.357666015625,-48.77005386352539,-44.146690368652344,Left
4048.015625,162167,1,1752.0,1768.0,1757.0,1161.0,1752.0,1752.0,1763.0,1749.0,83.357666015625,-48.77005386352539,-44.146690368652344,Left
4050.015625,162167,1,1770.0,1768.0,1757.0,1013.0,1757.0,1735.0,1763.0,1752.0,83.357666015625,-48.77005386352539,-44.146690368652344,Left
4052.015625,162167,1,1762.0,1763.0,1759.0,1221.0,1751.0,1717.0,1759.0,1751.0,83.357666015625,-48.77005386352539,-44.146690368652344,Left
4051.58056640625,162168,1,1761.0,1753.0,1757.0,1847.0,1736.0,1737.0,1762.0,1739.0,83.357666015625,-48.77005386352539,-44.146690368652344,Left
4053.58056640625,162168,1,1771.0,1768.0,1758.0,2199.0,1757.0,1768.0,1764.0,1753.0,83.357666015625,-48.77005386352539,-44.146690368652344,Left
4055.58056640625,162168,1,1769.0,1771.0,1757.0,2413.0,1754.0,1763.0,1763.0,1758.0,83.357666015625,-48.77005386352539,-44.146690368652344,Left
4057.58056640625,162168,1,1757.0,1765.0,1756.0,2283.0,1753.0,1767.0,1763.0,1757.0,83.357666015625,-48.77005386352539,-44.146690368652344,Left
4059.58056640625,162168,1,1757.0,1757.0,1762.0,2022.0,1757.0,1755.0,1764.0,1753.0,83.357666015625,-48.77005386352539,-44.146690368652344,Left
4061.57861328125,162169,1,1770.0,1767.0,1705.0,1651.0,1755.0,1757.0,1763.0,1749.0,83.357666015625,-48.77005386352539,-44.146690368652344,Left
4063.57861328125,162169,1,1755.0,1779.0,1757.0,1629.0,1747.0,1757.0,1763.0,1751.0,83.357666015625,-48.77005386352539,-44.146690368652344,Left
4065.57861328125,162169,1,1763.0,1767.0,1757.0,1312.0,1763.0,1757.0,1763.0,1751.0,83.357666015625,-48.77005386352539,-44.146690368652344,Left
4067.57861328125,162169,1,1765.0,1763.0,1757.0,1235.0,1751.0,1749.0,1763.0,1749.0,83.357666015625,-48.77005386352539,-44.146690368652344,Left
4069.57861328125,162169,1,1755.0,1758.0,1759.0,1437.0,1749.0,1764.0,1763.0,1746.0,83.357666015625,-48.77005386352539,-44.146690368652344,Left
4071.74951171875,162170,1,1761.0,1752.0,1765.0,2023.0,1757.0,1736.0,1757.0,1751.0,83.357666015625,-48.77005386352539,-44.146690368652344,Left
4073.74951171875,162170,1,1769.0,1763.0,1757.0,2327.0,1749.0,1758.0,1765.0,1753.0,83.357666015625,-48.77005386352539,-44.146690368652344,Left
4075.74951171875,162170,1,1756.0,1757.0,1758.0,2644.0,1743.0,1740.0,1759.0,1751.0,83.357666015625,-48.77005386352539,-44.146690368652344,Left
4077.74951171875,162170,1,1765.0,1765.0,1755.0,2533.0,1753.0,1749.0,1758.0,1752.0,83.357666015625,-48.77005386352539,-44.146690368652344,Left
4079.74951171875,162170,1,1763.0,1758.0,1759.0,2233.0,1753.0,1754.0,1763.0,1752.0,83.357666015625,-48.77005386352539,-44.146690368652344,Left
4081.435546875,162171,1,1763.0,1749.0,1755.0,1877.0,1757.0,1756.0,1763.0,1756.0,83.357666015625,-48.77005386352539,-44.146690368652344,Left
4083.435546875,162171,1,1759.0,1765.0,1756.0,1491.0,1756.0,1767.0,1763.0,1751.0,83.357666015625,-48.77005386352539,-44.146690368652344,Left
4085.435546875,162171,1,1765.0,1763.0,1759.0,1139.0,1755.0,1751.0,1761.0,1747.0,83.357666015625,-48.77005386352539,-44.146690368652344,Left
4087.435546875,162171,1,1758.0,1762.0,1757.0,1143.0,1749.0,1749.0,1763.0,1741.0,83.357666015625,-48.77005386352539,-44.146690368652344,Left
4089.435546875,162171,1,1757.0,1755.0,1759.0,1381.0,1749.0,1741.0,1759.0,1748.0,83.357666015625,-48.77005386352539,-44.146690368652344,Left
4091.319580078125,162172,1,1762.0,1745.0,1757.0,2027.0,1740.0,1739.0,1763.0,1742.0,83.357666015625,-48.77005386352539,-44.146690368652344,Left
4093.319580078125,162172,1,1742.0,1755.0,1757.0,2278.0,1751.0,1754.0,1763.0,1756.0,83.357666015625,-48.77005386352539,-44.146690368652344,Left
4095.319580078125,162172,1,1765.0,1763.0,1757.0,2473.0,1755.0,1753.0,1759.0,1754.0,83.357666015625,-48.77005386352539,-44.146690368652344,Left
4097.3193359375,162172,1,1756.0,1759.0,1757.0,2309.0,1757.0,1759.0,1763.0,1753.0,83.357666015625,-48.77005386352539,-44.146690368652344,Left
4099.3193359375,162172,1,1765.0,1756.0,1757.0,2116.0,1762.0,1753.0,1761.0,1753.0,83.357666015625,-48.77005386352539,-44.146690368652344,Left
4101.67138671875,162173,1,1759.0,1749.0,1754.0,1687.0,1753.0,1763.0,1757.0,1751.0,83.357666015625,-48.77005386352539,-44.146690368652344,Left
4103.67138671875,162173,1,1765.0,1759.0,1759.0,1442.0,1753.0,1758.0,1759.0,1750.0,82.29158020019531,-49.419090270996094,-41.56765365600586,Left
4105.67138671875,162173,1,1752.0,1757.0,1762.0,1060.0,1753.0,1743.0,1762.0,1747.0,82.29158020019531,-49.419090270996094,-41.56765365600586,Left
4107.67138671875,162173,1,1755.0,1764.0,1757.0,894.0,1753.0,1753.0,1759.0,1747.0,82.29158020019531,-49.419090270996094,-41.56765365600586,Left
4109.67138671875,162173,1,1767.0,1765.0,1755.0,1093.0,1752.0,1767.0,1763.0,1745.0,82.29158020019531,-49.419090270996094,-41.56765365600586,Left
4113.9892578125,162174,1,1753.0,1751.0,1748.0,1752.0,1747.0,1726.0,1765.0,1741.0,82.29158020019531,-49.419090270996094,-41.56765365600586,Left
4115.9892578125,162174,1,1763.0,1756.0,1757.0,2139.0,1749.0,1753.0,1759.0,1751.0,82.29158020019531,-49.419090270996094,-41.56765365600586,Left
4117.9892578125,162174,1,1755.0,1754.0,1756.0,2347.0,1741.0,1748.0,1764.0,1747.0,82.29158020019531,-49.419090270996094,-41.56765365600586,Left
4119.9892578125,162174,1,1764.0,1759.0,1755.0,2185.0,1753.0,1753.0,1761.0,1749.0,82.29158020019531,-49.419090270996094,-41.56765365600586,Left
4121.9892578125,162174,1,1763.0,1767.0,1757.0,2088.0,1755.0,1751.0,1763.0,1753.0,82.29158020019531,-49.419090270996094,-41.56765365600586,Left
4121.7509765625,162175,1,1765.0,1765.0,1755.0,1675.0,1765.0,1757.0,1763.0,1758.0,82.29158020019531,-49.419090270996094,-41.56765365600586,Left
4123.7509765625,162175,1,1765.0,1766.0,1757.0,1455.0,1752.0,1743.0,1762.0,1747.0,82.29158020019531,-49.419090270996094,-41.56765365600586,Left
4125.7509765625,162175,1,1753.0,1763.0,1761.0,1107.0,1748.0,1755.0,1763.0,1743.0,82.29158020019531,-49.419090270996094,-41.56765365600586,Left
4127.7509765625,162175,1,1755.0,1762.0,1759.0,909.0,1754.0,1758.0,1759.0,1749.0,82.29158020019531,-49.419090270996094,-41.56765365600586,Left
4129.7509765625,162175,1,1755.0,1762.0,1758.0,1193.0,1751.0,1753.0,1763.0,1749.0,82.29158020019531,-49.419090270996094,-41.56765365600586,Left
4156.12353515625,162176,1,1755.0,1757.0,1757.0,1755.0,1749.0,1749.0,1762.0,1752.0,82.29158020019531,-49.419090270996094,-41.56765365600586,Left
4158.12353515625,162176,1,1757.0,1762.0,1759.0,2066.0,1751.0,1753.0,1763.0,1752.0,82.29158020019531,-49.419090270996094,-41.56765365600586,Left
4160.12353515625,162176,1,1755.0,1759.0,1763.0,2291.0,1751.0,1751.0,1757.0,1751.0,82.29158020019531,-49.419090270996094,-41.56765365600586,Left
4162.12353515625,162176,1,1759.0,1757.0,1757.0,2167.0,1754.0,1747.0,1759.0,1753.0,82.29158020019531,-49.419090270996094,-41.56765365600586,Left
4164.12353515625,162176,1,1771.0,1755.0,1758.0,1960.0,1755.0,1747.0,1761.0,1755.0,82.29158020019531,-49.419090270996094,-41.56765365600586,Left
4156.12353515625,162177,1,1755.0,1757.0,1751.0,1691.0,1751.0,1754.0,1761.0,1746.0,82.29158020019531,-49.419090270996094,-41.56765365600586,Left
4158.12353515625,162177,1,1765.0,1763.0,1758.0,1637.0,1757.0,1763.0,1763.0,1753.0,82.29158020019531,-49.419090270996094,-41.56765365600586,Left
4160.12353515625,162177,1,1755.0,1763.0,1758.0,1196.0,1755.0,1750.0,1762.0,1753.0,82.29158020019531,-49.419090270996094,-41.56765365600586,Left
4162.12353515625,162177,1,1765.0,1767.0,1756.0,1225.0,1755.0,1765.0,1759.0,1753.0,82.29158020019531,-49.419090270996094,-41.56765365600586,Left
4164.12353515625,162177,1,1759.0,1767.0,1757.0,1484.0,1751.0,1773.0,1764.0,1751.0,82.29158020019531,-49.419090270996094,-41.56765365600586,Left
4157.125,162178,1,1736.0,1757.0,1757.0,2120.0,1742.0,1765.0,1762.0,1746.0,82.29158020019531,-49.419090270996094,-41.56765365600586,Left
4159.125,162178,1,1754.0,1766.0,1757.0,2296.0,1749.0,1748.0,1763.0,1747.0,82.29158020019531,-49.419090270996094,-41.56765365600586,Left
4161.125,162178,1,1754.0,1763.0,1759.0,2223.0,1747.0,1695.0,1763.0,1749.0,82.29158020019531,-49.419090270996094,-41.56765365600586,Left
4163.125,162178,1,1755.0,1762.0,1755.0,2135.0,1751.0,1736.0,1763.0,1741.0,82.29158020019531,-49.419090270996094,-41.56765365600586,Left
4165.125,162178,1,1749.0,1758.0,1759.0,1955.0,1748.0,1736.0,1763.0,1741.0,82.29158020019531,-49.419090270996094,-41.56765365600586,Left
4160.97265625,162179,1,1756.0,1765.0,1755.0,1727.0,1749.0,1751.0,1759.0,1743.0,82.29158020019531,-49.419090270996094,-41.56765365600586,Left
4162.97265625,162179,1,1759.0,1765.0,1756.0,1591.0,1753.0,1753.0,1762.0,1751.0,82.29158020019531,-49.419090270996094,-41.56765365600586,Left
4164.97265625,162179,1,1763.0,1769.0,1756.0,1302.0,1759.0,1779.0,1763.0,1756.0,82.29158020019531,-49.419090270996094,-41.56765365600586,Left
4166.97265625,162179,1,1765.0,1764.0,1758.0,1145.0,1755.0,1757.0,1757.0,1752.0,81.62440490722656,-49.880794525146484,-39.994686126708984,Left
4168.97265625,162179,1,1763.0,1766.0,1758.0,1326.0,1749.0,1755.0,1762.0,1750.0,81.62440490722656,-49.880794525146484,-39.994686126708984,Left
4171.01806640625,162180,1,1764.0,1757.0,1751.0,1935.0,1751.0,1757.0,1763.0,1754.0,81.62440490722656,-49.880794525146484,-39.994686126708984,Left
4173.01806640625,162180,1,1773.0,1767.0,1757.0,2333.0,1747.0,1767.0,1763.0,1749.0,81.62440490722656,-49.880794525146484,-39.994686126708984,Left
4175.01806640625,162180,1,1757.0,1757.0,1755.0,2444.0,1747.0,1767.0,1763.0,1751.0,81.62440490722656,-49.880794525146484,-39.994686126708984,Left
4177.01806640625,162180,1,1765.0,1759.0,1757.0,2260.0,1752.0,1769.0,1765.0,1749.0,81.62440490722656,-49.880794525146484,-39.994686126708984,Left
4179.01806640625,162180,1,1763.0,1763.0,1759.0,2065.0,1753.0,1757.0,1763.0,1751.0,81.62440490722656,-49.880794525146484,-39.994686126708984,Left
4183.34228515625,162181,1,1765.0,1768.0,1749.0,1673.0,1754.0,1695.0,1759.0,1748.0,81.62440490722656,-49.880794525146484,-39.994686126708984,Left
4185.34228515625,162181,1,1768.0,1767.0,1756.0,1579.0,1758.0,1739.0,1763.0,1751.0,81.62440490722656,-49.880794525146484,-39.994686126708984,Left
4187.34228515625,162181,1,1753.0,1757.0,1759.0,1253.0,1757.0,1748.0,1762.0,1749.0,81.62440490722656,-49.880794525146484,-39.994686126708984,Left
4189.34228515625,162181,1,1755.0,1765.0,1762.0,1079.0,1751.0,1751.0,1763.0,1741.0,81.62440490722656,-49.880794525146484,-39.994686126708984,Left
4191.34228515625,162181,1,1759.0,1763.0,1758.0,1257.0,1749.0,1770.0,1761.0,1758.0,81.62440490722656,-49.880794525146484,-39.994686126708984,Left
4191.5556640625,162182,1,1757.0,1759.0,1753.0,1907.0,1748.0,1751.0,1763.0,1751.0,81.62440490722656,-49.880794525146484,-39.994686126708984,Left
4193.5556640625,162182,1,1757.0,1757.0,1757.0,2214.0,1747.0,1756.0,1763.0,1749.0,81.62440490722656,-49.880794525146484,-39.994686126708984,Left
4195.5556640625,162182,1,1759.0,1756.0,1758.0,2443.0,1751.0,1753.0,1763.0,1753.0,81.62440490722656,-49.880794525146484,-39.994686126708984,Left
4197.5556640625,162182,1,1755.0,1763.0,1757.0,2109.0,1753.0,1755.0,1762.0,1753.0,81.62440490722656,-49.880794525146484,-39.994686126708984,Left
4199.5556640625,162182,1,1755.0,1762.0,1759.0,1911.0,1753.0,1753.0,1763.0,1755.0,81.62440490722656,-49.880794525146484,-39.994686126708984,Left
4201.4384765625,162183,1,1759.0,1764.0,1748.0,1580.0,1755.0,1757.0,1764.0,1749.0,81.62440490722656,-49.880794525146484,-39.994686126708984,Left
4203.4384765625,162183,1,1755.0,1759.0,1755.0,1479.0,1747.0,1753.0,1763.0,1747.0,81.62440490722656,-49.880794525146484,-39.994686126708984,Left
4205.4384765625,162183,1,1755.0,1759.0,1757.0,1205.0,1762.0,1768.0,1757.0,1757.0,81.62440490722656,-49.880794525146484,-39.994686126708984,Left
4207.4384765625,162183,1,1767.0,1767.0,1757.0,1116.0,1757.0,1751.0,1765.0,1753.0,81.62440490722656,-49.880794525146484,-39.994686126708984,Left
4209.4384765625,162183,1,1759.0,1766.0,1757.0,1291.0,1751.0,1751.0,1762.0,1747.0,81.62440490722656,-49.880794525146484,-39.994686126708984,Left
4215.70947265625,162184,1,1750.0,1755.0,1752.0,1931.0,1740.0,1753.0,1759.0,1745.0,81.62440490722656,-49.880794525146484,-39.994686126708984,Left
4217.70947265625,162184,1,1761.0,1759.0,1756.0,2295.0,1751.0,1749.0,1763.0,1751.0,81.62440490722656,-49.880794525146484,-39.994686126708984,Left
4219.70947265625,162184,1,1755.0,1761.0,1755.0,2463.0,1747.0,1751.0,1763.0,1747.0,81.62440490722656,-49.880794525146484,-39.994686126708984,Left
4221.70947265625,162184,1,1757.0,1766.0,1759.0,2287.0,1752.0,1756.0,1763.0,1751.0,81.62440490722656,-49.880794525146484,-39.994686126708984,Left
4223.70947265625,162184,1,1759.0,1763.0,1757.0,2042.0,1755.0,1757.0,1767.0,1755.0,81.62440490722656,-49.880794525146484,-39.994686126708984,Left
4222.46630859375,162185,1,1763.0,1761.0,1757.0,1785.0,1756.0,1759.0,1765.0,1757.0,81.62440490722656,-49.880794525146484,-39.994686126708984,Left
4224.46630859375,162185,1,1767.0,1759.0,1752.0,1621.0,1755.0,1741.0,1763.0,1749.0,81.62440490722656,-49.880794525146484,-39.994686126708984,Left
4226.46630859375,162185,1,1753.0,1761.0,1761.0,1371.0,1749.0,1741.0,1764.0,1740.0,81.62440490722656,-49.880794525146484,-39.994686126708984,Left
4228.46630859375,162185,1,1757.0,1765.0,1751.0,1235.0,1741.0,1768.0,1763.0,1751.0,81.62440490722656,-49.880794525146484,-39.994686126708984,Left
4230.46630859375,162185,1,1755.0,1758.0,1757.0,1470.0,1747.0,1743.0,1764.0,1739.0,81.62440490722656,-49.880794525146484,-39.994686126708984,Left
4231.4443359375,162186,1,1757.0,1753.0,1758.0,1928.0,1747.0,1746.0,1763.0,1752.0,81.3558120727539,-49.954833984375,-39.38736343383789,Left
4233.4443359375,162186,1,1763.0,1753.0,1758.0,2299.0,1754.0,1742.0,1764.0,1753.0,81.3558120727539,-49.954833984375,-39.38736343383789,Left
4235.4443359375,162186,1,1757.0,1757.0,1761.0,2343.0,1746.0,1743.0,1763.0,1753.0,81.3558120727539,-49.954833984375,-39.38736343383789,Left
4237.4443359375,162186,1,1768.0,1785.0,1759.0,2163.0,1759.0,1766.0,1763.0,1763.0,81.3558120727539,-49.954833984375,-39.38736343383789,Left
4239.4443359375,162186,1,1755.0,1765.0,1758.0,2037.0,1757.0,1771.0,1763.0,1755.0,81.3558120727539,-49.954833984375,-39.38736343383789,Left
4270.884765625,162187,1,1755.0,1763.0,1749.0,1739.0,1755.0,1775.0,1762.0,1746.0,81.3558120727539,-49.954833984375,-39.38736343383789,Left
4272.884765625,162187,1,1756.0,1765.0,1755.0,1413.0,1751.0,1767.0,1758.0,1749.0,81.3558120727539,-49.954833984375,-39.38736343383789,Left
4274.884765625,162187,1,1757.0,1765.0,1757.0,1175.0,1755.0,1718.0,1763.0,1750.0,81.3558120727539,-49.954833984375,-39.38736343383789,Left
4276.884765625,162187,1,1762.0,1753.0,1759.0,1112.0,1751.0,1703.0,1759.0,1741.0,81.3558120727539,-49.954833984375,-39.38736343383789,Left
4278.884765625,162187,1,1753.0,1751.0,1761.0,1288.0,1746.0,1747.0,1765.0,1741.0,81.3558120727539,-49.954833984375,-39.38736343383789,Left
4271.8935546875,162188,1,1757.0,1757.0,1756.0,1801.0,1747.0,1757.0,1765.0,1747.0,81.3558120727539,-49.954833984375,-39.38736343383789,Left
4273.8935546875,162188,1,1753.0,1759.0,1756.0,2054.0,1741.0,1755.0,1763.0,1747.0,81.3558120727539,-49.954833984375,-39.38736343383789,Left
4275.8935546875,162188,1,1763.0,1758.0,1757.0,2233.0,1757.0,1763.0,1763.0,1759.0,81.3558120727539,-49.954833984375,-39.38736343383789,Left
4277.8935546875,162188,1,1779.0,1759.0,1755.0,1983.0,1758.0,1755.0,1760.0,1757.0,81.3558120727539,-49.954833984375,-39.38736343383789,Left
4279.8935546875,162188,1,1757.0,1763.0,1755.0,1865.0,1756.0,1770.0,1763.0,1755.0,81.3558120727539,-49.954833984375,-39.38736343383789,Left
4271.8935546875,162189,1,1761.0,1757.0,1751.0,1821.0,1754.0,1753.0,1762.0,1751.0,81.3558120727539,-49.954833984375,-39.38736343383789,Left
4273.8935546875,162189,1,1757.0,1765.0,1756.0,1627.0,1757.0,1772.0,1762.0,1751.0,81.3558120727539,-49.954833984375,-39.38736343383789,Left
4275.8935546875,162189,1,1766.0,1767.0,1757.0,1357.0,1752.0,1789.0,1763.0,1749.0,81.3558120727539,-49.954833984375,-39.38736343383789,Left
4277.8935546875,162189,1,1755.0,1755.0,1755.0,1215.0,1751.0,1772.0,1763.0,1743.0,81.3558120727539,-49.954833984375,-39.38736343383789,Left
4279.8935546875,162189,1,1767.0,1763.0,1758.0,1244.0,1753.0,1749.0,1762.0,1753.0,81.3558120727539,-49.954833984375,-39.38736343383789,Left
4274.05810546875,162190,1,1749.0,1758.0,1757.0,1743.0,1738.0,1689.0,1759.0,1737.0,81.3558120727539,-49.954833984375,-39.38736343383789,Left
4276.05810546875,162190,1,1757.0,1727.0,1755.0,2168.0,1743.0,1659.0,1763.0,1747.0,81.3558120727539,-49.954833984375,-39.38736343383789,Left
4278.05810546875,162190,1,1755.0,1751.0,1757.0,2397.0,1753.0,1737.0,1755.0,1753.0,81.3558120727539,-49.954833984375,-39.38736343383789,Left
4280.05810546875,162190,1,1756.0,1765.0,1757.0,2252.0,1747.0,1779.0,1763.0,1751.0,81.3558120727539,-49.954833984375,-39.38736343383789,Left
4282.05810546875,162190,1,1757.0,1783.0,1761.0,2219.0,1757.0,1776.0,1763.0,1763.0,81.3558120727539,-49.954833984375,-39.38736343383789,Left
4283.37744140625,162191,1,1759.0,1771.0,1758.0,1831.0,1750.0,1763.0,1757.0,1751.0,81.3558120727539,-49.954833984375,-39.38736343383789,Left
4285.37744140625,162191,1,1755.0,1759.0,1755.0,1655.0,1749.0,1757.0,1764.0,1747.0,81.3558120727539,-49.954833984375,-39.38736343383789,Left
4287.37744140625,162191,1,1755.0,1766.0,1757.0,1206.0,1763.0,1738.0,1762.0,1741.0,81.3558120727539,-49.954833984375,-39.38736343383789,Left
4289.37744140625,162191,1,1751.0,1765.0,1757.0,1109.0,1751.0,1757.0,1763.0,1749.0,81.3558120727539,-49.954833984375,-39.38736343383789,Left
4291.37744140625,162191,1,1758.0,1761.0,1769.0,1175.0,1756.0,1753.0,1756.0,1755.0,81.3558120727539,-49.954833984375,-39.38736343383789,Left
4293.37548828125,162192,1,1765.0,1756.0,1771.0,1629.0,1745.0,1753.0,1762.0,1747.0,81.3558120727539,-49.954833984375,-39.38736343383789,Left
4295.37548828125,162192,1,1780.0,1757.0,1761.0,2059.0,1752.0,1753.0,1764.0,1759.0,81.3558120727539,-49.954833984375,-39.38736343383789,Left
4297.37548828125,162192,1,1765.0,1759.0,1763.0,2247.0,1753.0,1757.0,1763.0,1757.0,81.3558120727539,-49.954833984375,-39.38736343383789,Left
4299.37548828125,162192,1,1755.0,1765.0,1757.0,2107.0,1746.0,1770.0,1763.0,1753.0,81.27679443359375,-49.79510498046875,-39.21916198730469,Left
4301.37548828125,162192,1,1763.0,1762.0,1759.0,1787.0,1755.0,1753.0,1763.0,1755.0,81.27679443359375,-49.79510498046875,-39.21916198730469,Left
4301.2353515625,162193,1,1751.0,1763.0,1723.0,1633.0,1750.0,1748.0,1755.0,1739.0,81.27679443359375,-49.79510498046875,-39.21916198730469,Left
4303.2353515625,162193,1,1755.0,1757.0,1756.0,1555.0,1749.0,1747.0,1763.0,1747.0,81.27679443359375,-49.79510498046875,-39.21916198730469,Left
4305.2353515625,162193,1,1767.0,1767.0,1757.0,1231.0,1748.0,1767.0,1761.0,1751.0,81.27679443359375,-49.79510498046875,-39.21916198730469,Left
4307.2353515625,162193,1,1761.0,1763.0,1756.0,1247.0,1754.0,1755.0,1763.0,1753.0,81.27679443359375,-49.79510498046875,-39.21916198730469,Left
4309.2353515625,162193,1,1763.0,1757.0,1757.0,1431.0,1750.0,1745.0,1763.0,1749.0,81.27679443359375,-49.79510498046875,-39.21916198730469,Left
4314.29541015625,162194,1,1757.0,1749.0,1756.0,2005.0,1747.0,1740.0,1763.0,1751.0,81.27679443359375,-49.79510498046875,-39.21916198730469,Left
4316.29541015625,162194,1,1767.0,1763.0,1759.0,2300.0,1746.0,1755.0,1765.0,1753.0,81.27679443359375,-49.79510498046875,-39.21916198730469,Left
4318.29541015625,162194,1,1757.0,1767.0,1757.0,2317.0,1755.0,1753.0,1763.0,1747.0,81.27679443359375,-49.79510498046875,-39.21916198730469,Left
4320.29541015625,162194,1,1751.0,1756.0,1757.0,2166.0,1750.0,1751.0,1763.0,1748.0,81.27679443359375,-49.79510498046875,-39.21916198730469,Left
4322.29541015625,162194,1,1766.0,1755.0,1758.0,2005.0,1755.0,1762.0,1759.0,1748.0,81.27679443359375,-49.79510498046875,-39.21916198730469,Left
4321.5498046875,162195,1,1751.0,1763.0,1749.0,1689.0,1750.0,1745.0,1762.0,1749.0,81.27679443359375,-49.79510498046875,-39.21916198730469,Left
4323.5498046875,162195,1,1755.0,1769.0,1757.0,1553.0,1752.0,1754.0,1763.0,1755.0,81.27679443359375,-49.79510498046875,-39.21916198730469,Left
4325.5498046875,162195,1,1769.0,1767.0,1757.0,1286.0,1769.0,1756.0,1759.0,1758.0,81.27679443359375,-49.79510498046875,-39.21916198730469,Left
4327.5498046875,162195,1,1749.0,1763.0,1758.0,1039.0,1755.0,1753.0,1759.0,1745.0,81.27679443359375,-49.79510498046875,-39.21916198730469,Left
4329.5498046875,162195,1,1756.0,1757.0,1759.0,1239.0,1743.0,1749.0,1763.0,1741.0,81.27679443359375,-49.79510498046875,-39.21916198730469,Left
4331.85595703125,162196,1,1757.0,1753.0,1756.0,1855.0,1741.0,1749.0,1757.0,1741.0,81.27679443359375,-49.79510498046875,-39.21916198730469,Left
4333.85595703125,162196,1,1763.0,1756.0,1757.0,2285.0,1749.0,1748.0,1762.0,1751.0,81.27679443359375,-49.79510498046875,-39.21916198730469,Left
4335.85595703125,162196,1,1755.0,1759.0,1757.0,2483.0,1753.0,1747.0,1758.0,1753.0,81.27679443359375,-49.79510498046875,-39.21916198730469,Left
4337.85595703125,162196,1,1763.0,1757.0,1757.0,2204.0,1752.0,1753.0,1758.0,1753.0,81.27679443359375,-49.79510498046875,-39.21916198730469,Left
4339.85595703125,162196,1,1759.0,1756.0,1755.0,1975.0,1751.0,1752.0,1759.0,1748.0,81.27679443359375,-49.79510498046875,-39.21916198730469,Left
4387.68798828125,162197,1,1763.0,1747.0,1753.0,1721.0,1753.0,1757.0,1763.0,1749.0,81.27679443359375,-49.79510498046875,-39.21916198730469,Left
4389.68798828125,162197,1,1761.0,1757.0,1753.0,1511.0,1753.0,1762.0,1757.0,1747.0,81.27679443359375,-49.79510498046875,-39.21916198730469,Left
4391.68798828125,162197,1,1753.0,1783.0,1763.0,1132.0,1753.0,1747.0,1767.0,1749.0,81.27679443359375,-49.79510498046875,-39.21916198730469,Left
4393.68798828125,162197,1,1756.0,1765.0,1757.0,1055.0,1753.0,1752.0,1764.0,1748.0,81.27679443359375,-49.79510498046875,-39.21916198730469,Left
4395.68798828125,162197,1,1755.0,1757.0,1754.0,1225.0,1750.0,1756.0,1763.0,1753.0,81.27679443359375,-49.79510498046875,-39.21916198730469,Left
4388.67236328125,162198,1,1756.0,1749.0,1757.0,1739.0,1747.0,1764.0,1763.0,1751.0,81.27679443359375,-49.79510498046875,-39.21916198730469,Left
4390.67236328125,162198,1,1770.0,1764.0,1755.0,2156.0,1757.0,1757.0,1763.0,1751.0,81.27679443359375,-49.79510498046875,-39.21916198730469,Left
4392.67236328125,162198,1,1754.0,1757.0,1758.0,2315.0,1749.0,1736.0,1764.0,1748.0,81.27679443359375,-49.79510498046875,-39.21916198730469,Left
4394.67236328125,162198,1,1757.0,1759.0,1757.0,2407.0,1751.0,1743.0,1762.0,1748.0,81.27679443359375,-49.79510498046875,-39.21916198730469,Left
4396.67236328125,162198,1,1755.0,1764.0,1758.0,2165.0,1753.0,1741.0,1763.0,1749.0,81.27679443359375,-49.79510498046875,-39.21916198730469,Left
4388.67236328125,162199,1,1755.0,1755.0,1757.0,1908.0,1752.0,1751.0,1757.0,1750.0,81.27679443359375,-49.79510498046875,-39.21916198730469,Left
4390.67236328125,162199,1,1756.0,1753.0,1758.0,1687.0,1750.0,1764.0,1763.0,1751.0,81.13595581054688,-49.62425231933594,-39.26408386230469,Left
4392.67236328125,162199,1,1755.0,1766.0,1755.0,1182.0,1759.0,1766.0,1761.0,1753.0,81.13595581054688,-49.62425231933594,-39.26408386230469,Left
4394.67236328125,162199,1,1755.0,1768.0,1757.0,1077.0,1755.0,1761.0,1763.0,1753.0,81.13595581054688,-49.62425231933594,-39.26408386230469,Left
4396.67236328125,162199,1,1759.0,1757.0,1757.0,1358.0,1751.0,1757.0,1763.0,1751.0,81.13595581054688,-49.62425231933594,-39.26408386230469,Left
4389.66943359375,162200,1,1763.0,1755.0,1759.0,1838.0,1752.0,1734.0,1757.0,1747.0,81.13595581054688,-49.62425231933594,-39.26408386230469,Left
4391.66943359375,162200,1,1767.0,1759.0,1757.0,2347.0,1750.0,1764.0,1763.0,1751.0,81.13595581054688,-49.62425231933594,-39.26408386230469,Left
4393.66943359375,162200,1,1755.0,1757.0,1757.0,2520.0,1749.0,1801.0,1759.0,1749.0,81.13595581054688,-49.62425231933594,-39.26408386230469,Left
4395.66943359375,162200,1,1759.0,1751.0,1758.0,2473.0,1752.0,1775.0,1757.0,1747.0,81.13595581054688,-49.62425231933594,-39.26408386230469,Left
4397.66943359375,162200,1,1763.0,1763.0,1757.0,2159.0,1763.0,1757.0,1763.0,1757.0,81.13595581054688,-49.62425231933594,-39.26408386230469,Left
4389.66943359375,162201,1,1768.0,1749.0,1755.0,1871.0,1743.0,1725.0,1755.0,1743.0,81.13595581054688,-49.62425231933594,-39.26408386230469,Left
4391.66943359375,162201,1,1769.0,1759.0,1758.0,1641.0,1749.0,1695.0,1762.0,1747.0,81.13595581054688,-49.62425231933594,-39.26408386230469,Left
4393.66943359375,162201,1,1757.0,1755.0,1759.0,1203.0,1753.0,1673.0,1756.0,1733.0,81.13595581054688,-49.62425231933594,-39.26408386230469,Left
4395.66943359375,162201,1,1766.0,1767.0,1757.0,933.0,1751.0,1727.0,1763.0,1740.0,81.13595581054688,-49.62425231933594,-39.26408386230469,Left
4397.66943359375,162201,1,1755.0,1755.0,1757.0,1167.0,1749.0,1787.0,1759.0,1752.0,81.13595581054688,-49.62425231933594,-39.26408386230469,Left
4391.6689453125,162202,1,1768.0,1764.0,1751.0,1722.0,1750.0,1767.0,1759.0,1745.0,81.13595581054688,-49.62425231933594,-39.26408386230469,Left
4393.6689453125,162202,1,1741.0,1757.0,1757.0,2169.0,1751.0,1763.0,1763.0,1751.0,81.13595581054688,-49.62425231933594,-39.26408386230469,Left
4395.6689453125,162202,1,1759.0,1764.0,1759.0,2359.0,1756.0,1754.0,1764.0,1749.0,81.13595581054688,-49.62425231933594,-39.26408386230469,Left
4397.6689453125,162202,1,1759.0,1759.0,1757.0,2148.0,1753.0,1767.0,1759.0,1751.0,81.13595581054688,-49.62425231933594,-39.26408386230469,Left
4399.6689453125,162202,1,1751.0,1763.0,1757.0,1967.0,1751.0,1749.0,1762.0,1749.0,81.13595581054688,-49.62425231933594,-39.26408386230469,Left
4403.44287109375,162203,1,1759.0,1757.0,1757.0,1676.0,1755.0,1765.0,1763.0,1754.0,81.13595581054688,-49.62425231933594,-39.26408386230469,Left
4405.44287109375,162203,1,1757.0,1765.0,1759.0,1448.0,1756.0,1763.0,1758.0,1754.0,81.13595581054688,-49.62425231933594,-39.26408386230469,Left
4407.44287109375,162203,1,1763.0,1763.0,1759.0,1170.0,1759.0,1756.0,1759.0,1754.0,81.13595581054688,-49.62425231933594,-39.26408386230469,Left
4409.44287109375,162203,1,1759.0,1766.0,1757.0,1085.0,1753.0,1763.0,1763.0,1755.0,81.13595581054688,-49.62425231933594,-39.26408386230469,Left
4411.44287109375,162203,1,1767.0,1765.0,1756.0,1365.0,1755.0,1751.0,1764.0,1751.0,81.13595581054688,-49.62425231933594,-39.26408386230469,Left
4416.53125,162204,1,1763.0,1755.0,1757.0,1931.0,1746.0,1724.0,1755.0,1741.0,81.13595581054688,-49.62425231933594,-39.26408386230469,Left
4418.53125,162204,1,1763.0,1755.0,1756.0,2279.0,1747.0,1747.0,1759.0,1749.0,81.13595581054688,-49.62425231933594,-39.26408386230469,Left
4420.53125,162204,1,1762.0,1757.0,1757.0,2490.0,1747.0,1752.0,1761.0,1739.0,81.13595581054688,-49.62425231933594,-39.26408386230469,Left
4422.53125,162204,1,1747.0,1763.0,1755.0,2255.0,1749.0,1757.0,1763.0,1749.0,81.13595581054688,-49.62425231933594,-39.26408386230469,Left
4424.53125,162204,1,1759.0,1757.0,1758.0,2012.0,1751.0,1759.0,1762.0,1753.0,81.13595581054688,-49.62425231933594,-39.26408386230469,Left
4422.58056640625,162205,1,1769.0,1763.0,1754.0,1691.0,1757.0,1757.0,1751.0,1759.0,81.13595581054688,-49.62425231933594,-39.26408386230469,Left
4424.58056640625,162205,1,1758.0,1753.0,1758.0,1483.0,1755.0,1757.0,1763.0,1755.0,81.13595581054688,-49.62425231933594,-39.26408386230469,Left
4426.58056640625,162205,1,1753.0,1763.0,1757.0,1132.0,1750.0,1755.0,1763.0,1742.0,81.13595581054688,-49.62425231933594,-39.26408386230469,Left
4428.58056640625,162205,1,1757.0,1767.0,1759.0,1033.0,1751.0,1757.0,1763.0,1743.0,81.50296020507812,-49.53794860839844,-39.339012145996094,Left
4430.58056640625,162205,1,1762.0,1759.0,1757.0,1277.0,1751.0,1733.0,1762.0,1747.0,81.50296020507812,-49.53794860839844,-39.339012145996094,Left
4430.7421875,162206,1,1769.0,1749.0,1757.0,1883.0,1747.0,1743.0,1751.0,1759.0,81.50296020507812,-49.53794860839844,-39.339012145996094,Left
4432.7421875,162206,1,1763.0,1765.0,1759.0,2275.0,1755.0,1747.0,1763.0,1753.0,81.50296020507812,-49.53794860839844,-39.339012145996094,Left
4434.7421875,162206,1,1759.0,1759.0,1757.0,2451.0,1754.0,1751.0,1757.0,1752.0,81.50296020507812,-49.53794860839844,-39.339012145996094,Left
4436.7421875,162206,1,1764.0,1755.0,1757.0,2379.0,1749.0,1755.0,1759.0,1745.0,81.50296020507812,-49.53794860839844,-39.339012145996094,Left
4438.7421875,162206,1,1763.0,1759.0,1757.0,2174.0,1745.0,1757.0,1764.0,1749.0,81.50296020507812,-49.53794860839844,-39.339012145996094,Left
4469.33154296875,162207,1,1763.0,1757.0,1746.0,1739.0,1755.0,1753.0,1764.0,1753.0,81.50296020507812,-49.53794860839844,-39.339012145996094,Left
4471.33154296875,162207,1,1765.0,1764.0,1759.0,1529.0,1755.0,1754.0,1761.0,1756.0,81.50296020507812,-49.53794860839844,-39.339012145996094,Left
4473.33154296875,162207,1,1773.0,1766.0,1759.0,1259.0,1757.0,1761.0,1761.0,1752.0,81.50296020507812,-49.53794860839844,-39.339012145996094,Left
4475.33154296875,162207,1,1763.0,1759.0,1757.0,1111.0,1749.0,1740.0,1757.0,1737.0,81.50296020507812,-49.53794860839844,-39.339012145996094,Left
4477.33154296875,162207,1,1751.0,1759.0,1758.0,1500.0,1747.0,1748.0,1758.0,1739.0,81.50296020507812,-49.53794860839844,-39.339012145996094,Left
4470.345703125,162208,1,1765.0,1763.0,1751.0,1898.0,1747.0,1747.0,1755.0,1747.0,81.50296020507812,-49.53794860839844,-39.339012145996094,Left
4472.345703125,162208,1,1753.0,1743.0,1757.0,2247.0,1747.0,1746.0,1763.0,1749.0,81.50296020507812,-49.53794860839844,-39.339012145996094,Left
4474.345703125,162208,1,1755.0,1753.0,1754.0,2444.0,1743.0,1751.0,1763.0,1751.0,81.50296020507812,-49.53794860839844,-39.339012145996094,Left
4476.345703125,162208,1,1751.0,1781.0,1755.0,2409.0,1756.0,1765.0,1764.0,1753.0,81.50296020507812,-49.53794860839844,-39.339012145996094,Left
4478.345703125,162208,1,1763.0,1773.0,1758.0,2168.0,1752.0,1748.0,1763.0,1755.0,81.50296020507812,-49.53794860839844,-39.339012145996094,Left
4470.345703125,162209,1,1767.0,1757.0,1749.0,1763.0,1754.0,1763.0,1758.0,1759.0,81.50296020507812,-49.53794860839844,-39.339012145996094,Left
4472.345703125,162209,1,1775.0,1763.0,1757.0,1519.0,1755.0,1759.0,1763.0,1754.0,81.50296020507812,-49.53794860839844,-39.339012145996094,Left
4474.345703125,162209,1,1763.0,1763.0,1757.0,1159.0,1753.0,1753.0,1765.0,1747.0,81.50296020507812,-49.53794860839844,-39.339012145996094,Left
4476.345703125,162209,1,1755.0,1763.0,1757.0,952.0,1750.0,1746.0,1759.0,1741.0,81.50296020507812,-49.53794860839844,-39.339012145996094,Left
4478.345703125,162209,1,1759.0,1756.0,1757.0,1159.0,1746.0,1753.0,1763.0,1751.0,81.50296020507812,-49.53794860839844,-39.339012145996094,Left
4473.658203125,162210,1,1758.0,1756.0,1765.0,1642.0,1745.0,1751.0,1763.0,1748.0,81.50296020507812,-49.53794860839844,-39.339012145996094,Left
4475.658203125,162210,1,1763.0,1754.0,1757.0,2071.0,1749.0,1749.0,1762.0,1757.0,81.50296020507812,-49.53794860839844,-39.339012145996094,Left
4477.658203125,162210,1,1762.0,1755.0,1757.0,2232.0,1755.0,1753.0,1762.0,1751.0,81.50296020507812,-49.53794860839844,-39.339012145996094,Left
4479.658203125,162210,1,1759.0,1763.0,1755.0,2150.0,1747.0,1752.0,1761.0,1753.0,81.50296020507812,-49.53794860839844,-39.339012145996094,Left
4481.658203125,162210,1,1759.0,1763.0,1757.0,2095.0,1753.0,1755.0,1759.0,1748.0,81.50296020507812,-49.53794860839844,-39.339012145996094,Left
4505.9228515625,162211,1,1751.0,1756.0,1757.0,1833.0,1749.0,1763.0,1755.0,1741.0,81.50296020507812,-49.53794860839844,-39.339012145996094,Left
4507.9228515625,162211,1,1759.0,1749.0,1759.0,1606.0,1759.0,1763.0,1765.0,1754.0,81.50296020507812,-49.53794860839844,-39.339012145996094,Left
4509.9228515625,162211,1,1755.0,1757.0,1757.0,1395.0,1755.0,1766.0,1763.0,1747.0,81.50296020507812,-49.53794860839844,-39.339012145996094,Left
4511.9228515625,162211,1,1756.0,1773.0,1759.0,1254.0,1753.0,1740.0,1765.0,1746.0,81.50296020507812,-49.53794860839844,-39.339012145996094,Left
4513.9228515625,162211,1,1763.0,1787.0,1757.0,1349.0,1742.0,1743.0,1763.0,1743.0,81.50296020507812,-49.53794860839844,-39.339012145996094,Left
4506.935546875,162212,1,1765.0,1767.0,1756.0,1899.0,1746.0,1755.0,1763.0,1754.0,81.37860870361328,-49.471031188964844,-39.22372817993164,Left
4508.935546875,162212,1,1753.0,1753.0,1757.0,2235.0,1736.0,1747.0,1764.0,1746.0,81.37860870361328,-49.471031188964844,-39.22372817993164,Left
4510.935546875,162212,1,1763.0,1757.0,1758.0,2333.0,1741.0,1740.0,1763.0,1755.0,81.37860870361328,-49.471031188964844,-39.22372817993164,Left
4512.935546875,162212,1,1767.0,1759.0,1757.0,2183.0,1753.0,1771.0,1765.0,1750.0,81.37860870361328,-49.471031188964844,-39.22372817993164,Left
4514.935546875,162212,1,1751.0,1756.0,1757.0,1913.0,1739.0,1747.0,1757.0,1740.0,81.37860870361328,-49.471031188964844,-39.22372817993164,Left
4506.935546875,162213,1,1753.0,1773.0,1749.0,1753.0,1753.0,1768.0,1763.0,1752.0,81.37860870361328,-49.471031188964844,-39.22372817993164,Left
4508.935546875,162213,1,1763.0,1763.0,1757.0,1558.0,1753.0,1763.0,1763.0,1755.0,81.37860870361328,-49.471031188964844,-39.22372817993164,Left
4510.935546875,162213,1,1763.0,1764.0,1757.0,1271.0,1755.0,1749.0,1763.0,1748.0,81.37860870361328,-49.471031188964844,-39.22372817993164,Left
4512.935546875,162213,1,1751.0,1763.0,1757.0,1059.0,1747.0,1733.0,1763.0,1737.0,81.37860870361328,-49.471031188964844,-39.22372817993164,Left
4514.935546875,162213,1,1753.0,1754.0,1759.0,1291.0,1753.0,1753.0,1759.0,1749.0,81.37860870361328,-49.471031188964844,-39.22372817993164,Left
4512.05029296875,162214,1,1767.0,1767.0,1755.0,1973.0,1764.0,1747.0,1759.0,1763.0,81.37860870361328,-49.471031188964844,-39.22372817993164,Left
4514.05029296875,162214,1,1769.0,1768.0,1757.0,2186.0,1751.0,1741.0,1763.0,1749.0,81.37860870361328,-49.471031188964844,-39.22372817993164,Left
4516.05029296875,162214,1,1739.0,1753.0,1759.0,2207.0,1741.0,1775.0,1759.0,1747.0,81.37860870361328,-49.471031188964844,-39.22372817993164,Left
4518.05029296875,162214,1,1757.0,1757.0,1757.0,2141.0,1753.0,1784.0,1761.0,1749.0,81.37860870361328,-49.471031188964844,-39.22372817993164,Left
4520.05029296875,162214,1,1753.0,1757.0,1759.0,2055.0,1747.0,1755.0,1759.0,1743.0,81.37860870361328,-49.471031188964844,-39.22372817993164,Left
4524.4833984375,162215,1,1757.0,1759.0,1751.0,1805.0,1748.0,1719.0,1762.0,1751.0,81.37860870361328,-49.471031188964844,-39.22372817993164,Left
4526.4833984375,162215,1,1764.0,1762.0,1757.0,1543.0,1753.0,1743.0,1761.0,1754.0,81.37860870361328,-49.471031188964844,-39.22372817993164,Left
4528.4833984375,162215,1,1767.0,1768.0,1758.0,1245.0,1755.0,1737.0,1763.0,1747.0,81.37860870361328,-49.471031188964844,-39.22372817993164,Left
4530.4833984375,162215,1,1757.0,1759.0,1757.0,1067.0,1753.0,1765.0,1763.0,1752.0,81.37860870361328,-49.471031188964844,-39.22372817993164,Left
4532.4833984375,162215,1,1773.0,1764.0,1757.0,1310.0,1752.0,1758.0,1763.0,1751.0,81.37860870361328,-49.471031188964844,-39.22372817993164,Left
4533.17626953125,162216,1,1771.0,1761.0,1757.0,1837.0,1750.0,1763.0,1762.0,1753.0,81.37860870361328,-49.471031188964844,-39.22372817993164,Left
4535.17626953125,162216,1,1759.0,1749.0,1756.0,2167.0,1751.0,1759.0,1765.0,1751.0,81.37860870361328,-49.471031188964844,-39.22372817993164,Left
4537.17626953125,162216,1,1755.0,1769.0,1757.0,2323.0,1748.0,1751.0,1759.0,1753.0,81.37860870361328,-49.471031188964844,-39.22372817993164,Left
4539.17626953125,162216,1,1755.0,1781.0,1757.0,2103.0,1756.0,1768.0,1757.0,1749.0,81.37860870361328,-49.471031188964844,-39.22372817993164,Left
4541.17626953125,162216,1,1766.0,1765.0,1757.0,1912.0,1763.0,1767.0,1763.0,1763.0,81.37860870361328,-49.471031188964844,-39.22372817993164,Left
4543.08740234375,162217,1,1770.0,1748.0,1757.0,1787.0,1752.0,1717.0,1747.0,1727.0,81.37860870361328,-49.471031188964844,-39.22372817993164,Left
4545.08740234375,162217,1,1755.0,1756.0,1758.0,1493.0,1751.0,1727.0,1763.0,1752.0,81.37860870361328,-49.471031188964844,-39.22372817993164,Left
4547.08740234375,162217,1,1763.0,1761.0,1757.0,1197.0,1757.0,1751.0,1762.0,1752.0,81.37860870361328,-49.471031188964844,-39.22372817993164,Left
4549.08740234375,162217,1,1765.0,1763.0,1757.0,983.0,1751.0,1737.0,1763.0,1743.0,81.37860870361328,-49.471031188964844,-39.22372817993164,Left
4551.08740234375,162217,1,1748.0,1763.0,1759.0,1085.0,1753.0,1755.0,1762.0,1749.0,81.37860870361328,-49.471031188964844,-39.22372817993164,Left
4554.1435546875,162218,1,1757.0,1763.0,1752.0,1735.0,1751.0,1761.0,1763.0,1734.0,81.37860870361328,-49.471031188964844,-39.22372817993164,Left
4556.1435546875,162218,1,1737.0,1759.0,1759.0,2181.0,1751.0,1742.0,1763.0,1751.0,81.37860870361328,-49.471031188964844,-39.22372817993164,Left
4558.1435546875,162218,1,1759.0,1757.0,1756.0,2379.0,1747.0,1753.0,1762.0,1751.0,81.46505737304688,-49.58647537231445,-39.15885925292969,Left
4560.1435546875,162218,1,1751.0,1761.0,1755.0,2139.0,1751.0,1755.0,1765.0,1749.0,81.46505737304688,-49.58647537231445,-39.15885925292969,Left
4562.1435546875,162218,1,1758.0,1767.0,1755.0,2037.0,1756.0,1751.0,1763.0,1749.0,81.46505737304688,-49.58647537231445,-39.15885925292969,Left
4562.42724609375,162219,1,1769.0,1766.0,1759.0,1805.0,1758.0,1755.0,1747.0,1743.0,81.46505737304688,-49.58647537231445,-39.15885925292969,Left
4564.42724609375,162219,1,1769.0,1763.0,1757.0,1611.0,1754.0,1763.0,1762.0,1751.0,81.46505737304688,-49.58647537231445,-39.15885925292969,Left
4566.42724609375,162219,1,1763.0,1759.0,1759.0,1171.0,1751.0,1767.0,1758.0,1753.0,81.46505737304688,-49.58647537231445,-39.15885925292969,Left
4568.42724609375,162219,1,1753.0,1764.0,1757.0,1075.0,1749.0,1751.0,1763.0,1743.0,81.46505737304688,-49.58647537231445,-39.15885925292969,Left
4570.42724609375,162219,1,1757.0,1765.0,1757.0,1268.0,1751.0,1763.0,1763.0,1747.0,81.46505737304688,-49.58647537231445,-39.15885925292969,Left
4573.89404296875,162220,1,1756.0,1753.0,1755.0,1875.0,1749.0,1743.0,1757.0,1747.0,81.46505737304688,-49.58647537231445,-39.15885925292969,Left
4575.89404296875,162220,1,1751.0,1759.0,1757.0,2212.0,1752.0,1747.0,1763.0,1750.0,81.46505737304688,-49.58647537231445,-39.15885925292969,Left
4577.89404296875,162220,1,1763.0,1757.0,1757.0,2302.0,1748.0,1759.0,1759.0,1755.0,81.46505737304688,-49.58647537231445,-39.15885925292969,Left
4579.89404296875,162220,1,1755.0,1767.0,1757.0,2275.0,1750.0,1751.0,1762.0,1749.0,81.46505737304688,-49.58647537231445,-39.15885925292969,Left
4581.89404296875,162220,1,1753.0,1761.0,1758.0,2111.0,1751.0,1757.0,1763.0,1751.0,81.46505737304688,-49.58647537231445,-39.15885925292969,Left
4585.60546875,162221,1,1755.0,1759.0,1755.0,1784.0,1752.0,1755.0,1762.0,1746.0,81.46505737304688,-49.58647537231445,-39.15885925292969,Left
4587.60546875,162221,1,1768.0,1751.0,1757.0,1621.0,1755.0,1759.0,1763.0,1753.0,81.46505737304688,-49.58647537231445,-39.15885925292969,Left
4589.60546875,162221,1,1765.0,1764.0,1755.0,1315.0,1753.0,1751.0,1762.0,1749.0,81.46505737304688,-49.58647537231445,-39.15885925292969,Left
4591.60546875,162221,1,1755.0,1765.0,1757.0,1175.0,1755.0,1751.0,1763.0,1749.0,81.46505737304688,-49.58647537231445,-39.15885925292969,Left
4593.60546875,162221,1,1757.0,1764.0,1756.0,1324.0,1747.0,1756.0,1763.0,1753.0,81.46505737304688,-49.58647537231445,-39.15885925292969,Left
4590.96240234375,162222,1,1765.0,1755.0,1756.0,1750.0,1740.0,1741.0,1749.0,1746.0,81.46505737304688,-49.58647537231445,-39.15885925292969,Left
4592.96240234375,162222,1,1761.0,1757.0,1753.0,2245.0,1747.0,1741.0,1763.0,1743.0,81.46505737304688,-49.58647537231445,-39.15885925292969,Left
4594.96240234375,162222,1,1757.0,1763.0,1758.0,2335.0,1753.0,1763.0,1763.0,1755.0,81.46505737304688,-49.58647537231445,-39.15885925292969,Left
4596.96240234375,162222,1,1763.0,1757.0,1757.0,2294.0,1757.0,1771.0,1757.0,1755.0,81.46505737304688,-49.58647537231445,-39.15885925292969,Left
4598.96240234375,162222,1,1756.0,1763.0,1757.0,2106.0,1752.0,1749.0,1759.0,1745.0,81.46505737304688,-49.58647537231445,-39.15885925292969,Left
4625.32666015625,162223,1,1767.0,1771.0,1757.0,1877.0,1755.0,1747.0,1763.0,1751.0,81.46505737304688,-49.58647537231445,-39.15885925292969,Left
4627.32666015625,162223,1,1755.0,1762.0,1757.0,1641.0,1752.0,1755.0,1763.0,1749.0,81.46505737304688,-49.58647537231445,-39.15885925292969,Left
4629.32666015625,162223,1,1767.0,1767.0,1757.0,1319.0,1754.0,1753.0,1763.0,1750.0,81.46505737304688,-49.58647537231445,-39.15885925292969,Left
4631.32666015625,162223,1,1751.0,1755.0,1755.0,1043.0,1749.0,1739.0,1759.0,1747.0,81.46505737304688,-49.58647537231445,-39.15885925292969,Left
4633.32666015625,162223,1,1757.0,1759.0,1755.0,1327.0,1749.0,1746.0,1758.0,1749.0,81.46505737304688,-49.58647537231445,-39.15885925292969,Left
4626.3408203125,162224,1,1766.0,1757.0,1755.0,1911.0,1752.0,1775.0,1763.0,1757.0,81.46505737304688,-49.58647537231445,-39.15885925292969,Left
4628.3408203125,162224,1,1757.0,1758.0,1759.0,2251.0,1752.0,1759.0,1759.0,1751.0,81.46505737304688,-49.58647537231445,-39.15885925292969,Left
4630.3408203125,162224,1,1775.0,1767.0,1759.0,2516.0,1754.0,1781.0,1763.0,1754.0,81.46505737304688,-49.58647537231445,-39.15885925292969,Left
4632.3408203125,162224,1,1768.0,1749.0,1759.0,2375.0,1752.0,1747.0,1763.0,1749.0,81.46505737304688,-49.58647537231445,-39.15885925292969,Left
4634.3408203125,162224,1,1754.0,1763.0,1758.0,2068.0,1749.0,1723.0,1759.0,1750.0,81.46505737304688,-49.58647537231445,-39.15885925292969,Left
4626.3408203125,162225,1,1755.0,1775.0,1749.0,1674.0,1754.0,1721.0,1763.0,1743.0,81.48626708984375,-49.60498809814453,-39.038185119628906,Left
4628.3408203125,162225,1,1756.0,1757.0,1756.0,1338.0,1750.0,1677.0,1761.0,1739.0,81.48626708984375,-49.60498809814453,-39.038185119628906,Left
4630.3408203125,162225,1,1770.0,1754.0,1757.0,1183.0,1741.0,1748.0,1763.0,1743.0,81.48626708984375,-49.60498809814453,-39.038185119628906,Left
4632.3408203125,162225,1,1757.0,1759.0,1757.0,1047.0,1752.0,1783.0,1763.0,1749.0,81.48626708984375,-49.60498809814453,-39.038185119628906,Left
4634.3408203125,162225,1,1770.0,1762.0,1759.0,1405.0,1754.0,1781.0,1765.0,1762.0,81.48626708984375,-49.60498809814453,-39.038185119628906,Left
4632.8212890625,162226,1,1766.0,1763.0,1756.0,1876.0,1752.0,1761.0,1757.0,1749.0,81.48626708984375,-49.60498809814453,-39.038185119628906,Left
4634.8212890625,162226,1,1763.0,1757.0,1759.0,2312.0,1749.0,1757.0,1764.0,1748.0,81.48626708984375,-49.60498809814453,-39.038185119628906,Left
4636.8212890625,162226,1,1754.0,1757.0,1758.0,2321.0,1749.0,1765.0,1763.0,1754.0,81.48626708984375,-49.60498809814453,-39.038185119628906,Left
4638.8212890625,162226,1,1763.0,1756.0,1759.0,2373.0,1752.0,1759.0,1759.0,1752.0,81.48626708984375,-49.60498809814453,-39.038185119628906,Left
4640.8212890625,162226,1,1757.0,1765.0,1757.0,2186.0,1751.0,1753.0,1763.0,1751.0,81.48626708984375,-49.60498809814453,-39.038185119628906,Left
4644.32666015625,162227,1,1753.0,1757.0,1756.0,1869.0,1755.0,1771.0,1764.0,1751.0,81.48626708984375,-49.60498809814453,-39.038185119628906,Left
4646.32666015625,162227,1,1755.0,1766.0,1756.0,1515.0,1754.0,1745.0,1762.0,1751.0,81.48626708984375,-49.60498809814453,-39.038185119628906,Left
4648.32666015625,162227,1,1767.0,1768.0,1757.0,1261.0,1762.0,1757.0,1763.0,1755.0,81.48626708984375,-49.60498809814453,-39.038185119628906,Left
4650.32666015625,162227,1,1753.0,1759.0,1757.0,1172.0,1747.0,1747.0,1763.0,1739.0,81.48626708984375,-49.60498809814453,-39.038185119628906,Left
4652.32666015625,162227,1,1765.0,1757.0,1759.0,1477.0,1752.0,1753.0,1762.0,1752.0,81.48626708984375,-49.60498809814453,-39.038185119628906,Left
4664.62451171875,162228,1,1756.0,1755.0,1753.0,1941.0,1749.0,1751.0,1763.0,1737.0,81.48626708984375,-49.60498809814453,-39.038185119628906,Left
4666.62451171875,162228,1,1753.0,1764.0,1755.0,2285.0,1749.0,1748.0,1762.0,1751.0,81.48626708984375,-49.60498809814453,-39.038185119628906,Left
4668.62451171875,162228,1,1754.0,1763.0,1759.0,2295.0,1751.0,1756.0,1763.0,1753.0,81.48626708984375,-49.60498809814453,-39.038185119628906,Left
4670.62451171875,162228,1,1757.0,1765.0,1759.0,2200.0,1755.0,1753.0,1758.0,1752.0,81.48626708984375,-49.60498809814453,-39.038185119628906,Left
4672.62451171875,162228,1,1765.0,1765.0,1759.0,1931.0,1755.0,1741.0,1758.0,1750.0,81.48626708984375,-49.60498809814453,-39.038185119628906,Left
4665.58203125,162229,1,1755.0,1766.0,1756.0,1655.0,1757.0,1763.0,1740.0,1745.0,81.48626708984375,-49.60498809814453,-39.038185119628906,Left
4667.58203125,162229,1,1765.0,1759.0,1756.0,1542.0,1755.0,1758.0,1763.0,1753.0,81.48626708984375,-49.60498809814453,-39.038185119628906,Left
4669.58203125,162229,1,1759.0,1759.0,1757.0,1263.0,1747.0,1749.0,1763.0,1746.0,81.48626708984375,-49.60498809814453,-39.038185119628906,Left
4671.58203125,162229,1,1763.0,1764.0,1757.0,1087.0,1748.0,1767.0,1763.0,1747.0,81.48626708984375,-49.60498809814453,-39.038185119628906,Left
4673.58203125,162229,1,1764.0,1763.0,1758.0,1288.0,1751.0,1749.0,1762.0,1749.0,81.48626708984375,-49.60498809814453,-39.038185119628906,Left
4672.89404296875,162230,1,1753.0,1755.0,1757.0,1772.0,1741.0,1752.0,1763.0,1740.0,81.48626708984375,-49.60498809814453,-39.038185119628906,Left
4674.89404296875,162230,1,1762.0,1755.0,1757.0,2169.0,1757.0,1751.0,1759.0,1755.0,81.48626708984375,-49.60498809814453,-39.038185119628906,Left
4676.89404296875,162230,1,1773.0,1765.0,1757.0,2457.0,1755.0,1733.0,1759.0,1755.0,81.48626708984375,-49.60498809814453,-39.038185119628906,Left
4678.89404296875,162230,1,1771.0,1769.0,1758.0,2355.0,1756.0,1753.0,1759.0,1755.0,81.48626708984375,-49.60498809814453,-39.038185119628906,Left
4680.89404296875,162230,1,1759.0,1763.0,1765.0,2132.0,1751.0,1746.0,1757.0,1746.0,81.48626708984375,-49.60498809814453,-39.038185119628906,Left
4681.76220703125,162231,1,1757.0,1766.0,1757.0,1810.0,1739.0,1752.0,1747.0,1747.0,81.48626708984375,-49.60498809814453,-39.038185119628906,Left
4683.76220703125,162231,1,1759.0,1765.0,1757.0,1523.0,1753.0,1755.0,1763.0,1749.0,81.48626708984375,-49.60498809814453,-39.038185119628906,Left
4685.76220703125,162231,1,1765.0,1767.0,1762.0,1267.0,1756.0,1762.0,1763.0,1751.0,81.48626708984375,-49.60498809814453,-39.038185119628906,Left
4687.76220703125,162231,1,1755.0,1765.0,1758.0,1071.0,1753.0,1759.0,1764.0,1750.0,81.66690063476562,-49.56065368652344,-38.864627838134766,Left
4689.76220703125,162231,1,1757.0,1766.0,1755.0,1247.0,1752.0,1763.0,1757.0,1749.0,81.66690063476562,-49.56065368652344,-38.864627838134766,Left
4690.79541015625,162232,1,1757.0,1755.0,1747.0,1838.0,1747.0,1747.0,1762.0,1740.0,81.66690063476562,-49.56065368652344,-38.864627838134766,Left
4692.79541015625,162232,1,1755.0,1759.0,1759.0,2151.0,1748.0,1741.0,1763.0,1743.0,81.66690063476562,-49.56065368652344,-38.864627838134766,Left
4694.79541015625,162232,1,1756.0,1759.0,1757.0,2325.0,1767.0,1739.0,1758.0,1749.0,81.66690063476562,-49.56065368652344,-38.864627838134766,Left
4696.79541015625,162232,1,1763.0,1757.0,1756.0,2274.0,1753.0,1755.0,1763.0,1757.0,81.66690063476562,-49.56065368652344,-38.864627838134766,Left
4698.79541015625,162232,1,1759.0,1766.0,1762.0,1919.0,1755.0,1751.0,1763.0,1754.0,81.66690063476562,-49.56065368652344,-38.864627838134766,Left
4705.16943359375,162233,1,1755.0,1769.0,1751.0,1619.0,1753.0,1753.0,1757.0,1747.0,81.66690063476562,-49.56065368652344,-38.864627838134766,Left
4707.16943359375,162233,1,1757.0,1753.0,1759.0,1451.0,1757.0,1753.0,1763.0,1756.0,81.66690063476562,-49.56065368652344,-38.864627838134766,Left
4709.16943359375,162233,1,1765.0,1765.0,1759.0,1226.0,1757.0,1763.0,1763.0,1749.0,81.66690063476562,-49.56065368652344,-38.864627838134766,Left
4711.16943359375,162233,1,1762.0,1771.0,1759.0,1019.0,1753.0,1767.0,1763.0,1753.0,81.66690063476562,-49.56065368652344,-38.864627838134766,Left
4713.16943359375,162233,1,1775.0,1764.0,1759.0,1229.0,1750.0,1750.0,1761.0,1747.0,81.66690063476562,-49.56065368652344,-38.864627838134766,Left
4711.19091796875,162234,1,1761.0,1738.0,1751.0,1806.0,1749.0,1747.0,1763.0,1752.0,81.66690063476562,-49.56065368652344,-38.864627838134766,Left
4713.19091796875,162234,1,1763.0,1764.0,1759.0,2231.0,1747.0,1755.0,1763.0,1748.0,81.66690063476562,-49.56065368652344,-38.864627838134766,Left
4715.19091796875,162234,1,1757.0,1782.0,1757.0,2412.0,1751.0,1741.0,1761.0,1745.0,81.66690063476562,-49.56065368652344,-38.864627838134766,Left
4717.19091796875,162234,1,1757.0,1764.0,1761.0,2131.0,1753.0,1757.0,1765.0,1750.0,81.66690063476562,-49.56065368652344,-38.864627838134766,Left
4719.19091796875,162234,1,1766.0,1767.0,1757.0,1949.0,1757.0,1726.0,1763.0,1761.0,81.66690063476562,-49.56065368652344,-38.864627838134766,Left
4743.177734375,162235,1,1754.0,1756.0,1751.0,1736.0,1751.0,1755.0,1763.0,1750.0,81.66690063476562,-49.56065368652344,-38.864627838134766,Left
4745.177734375,162235,1,1759.0,1768.0,1757.0,1617.0,1751.0,1756.0,1761.0,1751.0,81.66690063476562,-49.56065368652344,-38.864627838134766,Left
4747.177734375,162235,1,1759.0,1759.0,1758.0,1270.0,1749.0,1752.0,1763.0,1747.0,81.66690063476562,-49.56065368652344,-38.864627838134766,Left
4749.177734375,162235,1,1757.0,1759.0,1761.0,1173.0,1753.0,1753.0,1765.0,1753.0,81.66690063476562,-49.56065368652344,-38.864627838134766,Left
4751.177734375,162235,1,1752.0,1766.0,1759.0,1351.0,1745.0,1750.0,1759.0,1749.0,81.66690063476562,-49.56065368652344,-38.864627838134766,Left
4744.19873046875,162236,1,1766.0,1763.0,1749.0,1843.0,1753.0,1746.0,1763.0,1763.0,81.66690063476562,-49.56065368652344,-38.864627838134766,Left
4746.19873046875,162236,1,1767.0,1763.0,1756.0,2251.0,1751.0,1765.0,1758.0,1748.0,81.66690063476562,-49.56065368652344,-38.864627838134766,Left
4748.19873046875,162236,1,1753.0,1765.0,1757.0,2333.0,1747.0,1754.0,1763.0,1747.0,81.66690063476562,-49.56065368652344,-38.864627838134766,Left
4750.19873046875,162236,1,1753.0,1757.0,1752.0,2205.0,1752.0,1749.0,1763.0,1748.0,81.66690063476562,-49.56065368652344,-38.864627838134766,Left
4752.19873046875,162236,1,1758.0,1763.0,1759.0,1966.0,1751.0,1779.0,1762.0,1755.0,81.66690063476562,-49.56065368652344,-38.864627838134766,Left
4744.19873046875,162237,1,1772.0,1759.0,1757.0,1847.0,1761.0,1768.0,1763.0,1755.0,81.66690063476562,-49.56065368652344,-38.864627838134766,Left
4746.19873046875,162237,1,1759.0,1769.0,1758.0,1725.0,1759.0,1765.0,1764.0,1759.0,81.66690063476562,-49.56065368652344,-38.864627838134766,Left
4748.19873046875,162237,1,1754.0,1766.0,1757.0,1374.0,1757.0,1725.0,1763.0,1751.0,81.66690063476562,-49.56065368652344,-38.864627838134766,Left
4750.19873046875,162237,1,1755.0,1763.0,1757.0,1257.0,1753.0,1747.0,1762.0,1743.0,81.66690063476562,-49.56065368652344,-38.864627838134766,Left
4752.19873046875,162237,1,1762.0,1759.0,1759.0,1397.0,1746.0,1739.0,1763.0,1742.0,81.66690063476562,-49.56065368652344,-38.864627838134766,Left
4754.1875,162238,1,1759.0,1749.0,1773.0,1989.0,1747.0,1755.0,1764.0,1741.0,81.66690063476562,-49.56065368652344,-38.864627838134766,Left
4756.1875,162238,1,1763.0,1757.0,1761.0,2199.0,1747.0,1751.0,1759.0,1747.0,81.20685577392578,-49.60737991333008,-38.7205810546875,Left
4758.1875,162238,1,1755.0,1756.0,1758.0,2389.0,1771.0,1762.0,1759.0,1752.0,81.20685577392578,-49.60737991333008,-38.7205810546875,Left
4760.1875,162238,1,1754.0,1757.0,1757.0,2195.0,1753.0,1755.0,1763.0,1753.0,81.20685577392578,-49.60737991333008,-38.7205810546875,Left
4762.1875,162238,1,1764.0,1765.0,1757.0,1931.0,1758.0,1721.0,1762.0,1753.0,81.20685577392578,-49.60737991333008,-38.7205810546875,Left
4768.4326171875,162239,1,1763.0,1765.0,1756.0,1509.0,1758.0,1738.0,1757.0,1753.0,81.20685577392578,-49.60737991333008,-38.7205810546875,Left
4770.4326171875,162239,1,1767.0,1764.0,1759.0,1486.0,1755.0,1761.0,1757.0,1753.0,81.20685577392578,-49.60737991333008,-38.7205810546875,Left
4772.4326171875,162239,1,1767.0,1767.0,1757.0,1339.0,1755.0,1769.0,1763.0,1751.0,81.20685577392578,-49.60737991333008,-38.7205810546875,Left
4774.4326171875,162239,1,1755.0,1767.0,1755.0,1200.0,1750.0,1765.0,1763.0,1748.0,81.20685577392578,-49.60737991333008,-38.7205810546875,Left
4776.4326171875,162239,1,1752.0,1758.0,1757.0,1417.0,1749.0,1748.0,1763.0,1741.0,81.20685577392578,-49.60737991333008,-38.7205810546875,Left
4771.466796875,162240,1,1752.0,1763.0,1755.0,1959.0,1741.0,1747.0,1759.0,1749.0,81.20685577392578,-49.60737991333008,-38.7205810546875,Left
4773.466796875,162240,1,1757.0,1757.0,1762.0,2405.0,1749.0,1757.0,1765.0,1751.0,81.20685577392578,-49.60737991333008,-38.7205810546875,Left
4775.466796875,162240,1,1767.0,1770.0,1758.0,2397.0,1747.0,1753.0,1761.0,1745.0,81.20685577392578,-49.60737991333008,-38.7205810546875,Left
4777.466796875,162240,1,1773.0,1767.0,1757.0,2215.0,1757.0,1763.0,1763.0,1757.0,81.20685577392578,-49.60737991333008,-38.7205810546875,Left
4779.466796875,162240,1,1755.0,1764.0,1757.0,1883.0,1751.0,1746.0,1763.0,1748.0,81.20685577392578,-49.60737991333008,-38.7205810546875,Left
4781.5849609375,162241,1,1758.0,1767.0,1757.0,1606.0,1755.0,1755.0,1764.0,1752.0,81.20685577392578,-49.60737991333008,-38.7205810546875,Left
4783.5849609375,162241,1,1753.0,1765.0,1763.0,1323.0,1752.0,1747.0,1757.0,1747.0,81.20685577392578,-49.60737991333008,-38.7205810546875,Left
4785.5849609375,162241,1,1762.0,1756.0,1757.0,1144.0,1755.0,1761.0,1764.0,1752.0,81.20685577392578,-49.60737991333008,-38.7205810546875,Left
4787.5849609375,162241,1,1771.0,1765.0,1753.0,1045.0,1763.0,1758.0,1763.0,1757.0,81.20685577392578,-49.60737991333008,-38.7205810546875,Left
4789.5849609375,162241,1,1756.0,1769.0,1757.0,1194.0,1752.0,1755.0,1762.0,1746.0,81.20685577392578,-49.60737991333008,-38.7205810546875,Left
4791.765625,162242,1,1759.0,1750.0,1757.0,1751.0,1743.0,1743.0,1767.0,1749.0,81.20685577392578,-49.60737991333008,-38.7205810546875,Left
4793.765625,162242,1,1757.0,1758.0,1758.0,2215.0,1747.0,1751.0,1765.0,1749.0,81.20685577392578,-49.60737991333008,-38.7205810546875,Left
4795.765625,162242,1,1755.0,1762.0,1755.0,2423.0,1748.0,1759.0,1764.0,1751.0,81.20685577392578,-49.60737991333008,-38.7205810546875,Left
4797.765625,162242,1,1755.0,1763.0,1759.0,2157.0,1751.0,1753.0,1763.0,1755.0,81.20685577392578,-49.60737991333008,-38.7205810546875,Left
4799.765625,162242,1,1771.0,1768.0,1757.0,1955.0,1765.0,1755.0,1761.0,1762.0,81.20685577392578,-49.60737991333008,-38.7205810546875,Left
4802.654296875,162243,1,1757.0,1756.0,1760.0,1797.0,1757.0,1751.0,1763.0,1751.0,81.20685577392578,-49.60737991333008,-38.7205810546875,Left
4804.654296875,162243,1,1753.0,1765.0,1758.0,1677.0,1753.0,1734.0,1759.0,1745.0,81.20685577392578,-49.60737991333008,-38.7205810546875,Left
4806.654296875,162243,1,1755.0,1767.0,1756.0,1400.0,1757.0,1741.0,1765.0,1754.0,81.20685577392578,-49.60737991333008,-38.7205810546875,Left
4808.654296875,162243,1,1772.0,1769.0,1755.0,1205.0,1757.0,1783.0,1759.0,1755.0,81.20685577392578,-49.60737991333008,-38.7205810546875,Left
4810.654296875,162243,1,1764.0,1758.0,1757.0,1595.0,1751.0,1779.0,1759.0,1748.0,81.20685577392578,-49.60737991333008,-38.7205810546875,Left
4811.55029296875,162244,1,1753.0,1757.0,1755.0,2065.0,1743.0,1749.0,1763.0,1741.0,81.20685577392578,-49.60737991333008,-38.7205810546875,Left
4813.55029296875,162244,1,1756.0,1765.0,1758.0,2367.0,1743.0,1743.0,1763.0,1751.0,81.20685577392578,-49.60737991333008,-38.7205810546875,Left
4815.55029296875,162244,1,1753.0,1756.0,1757.0,2375.0,1753.0,1727.0,1763.0,1747.0,81.20685577392578,-49.60737991333008,-38.7205810546875,Left
4817.55029296875,162244,1,1750.0,1759.0,1757.0,2208.0,1747.0,1741.0,1764.0,1743.0,81.34402465820312,-49.60557556152344,-38.78242874145508,Left
4819.55029296875,162244,1,1753.0,1757.0,1758.0,1963.0,1751.0,1749.0,1757.0,1753.0,81.34402465820312,-49.60557556152344,-38.78242874145508,Left
4822.32861328125,162245,1,1767.0,1768.0,1749.0,1717.0,1759.0,1763.0,1764.0,1756.0,81.34402465820312,-49.60557556152344,-38.78242874145508,Left
4824.32861328125,162245,1,1759.0,1769.0,1757.0,1605.0,1757.0,1765.0,1761.0,1749.0,81.34402465820312,-49.60557556152344,-38.78242874145508,Left
4826.32861328125,162245,1,1757.0,1765.0,1757.0,1317.0,1754.0,1774.0,1757.0,1752.0,81.34402465820312,-49.60557556152344,-38.78242874145508,Left
4828.32861328125,162245,1,1770.0,1766.0,1761.0,1187.0,1755.0,1737.0,1764.0,1741.0,81.34402465820312,-49.60557556152344,-38.78242874145508,Left
4830.32861328125,162245,1,1757.0,1755.0,1757.0,1340.0,1741.0,1743.0,1757.0,1743.0,81.34402465820312,-49.60557556152344,-38.78242874145508,Left
4831.0849609375,162246,1,1753.0,1757.0,1750.0,1879.0,1743.0,1752.0,1763.0,1746.0,81.34402465820312,-49.60557556152344,-38.78242874145508,Left
4833.0849609375,162246,1,1759.0,1749.0,1755.0,2134.0,1746.0,1745.0,1759.0,1749.0,81.34402465820312,-49.60557556152344,-38.78242874145508,Left
4835.0849609375,162246,1,1764.0,1759.0,1757.0,2394.0,1757.0,1753.0,1763.0,1752.0,81.34402465820312,-49.60557556152344,-38.78242874145508,Left
4837.0849609375,162246,1,1765.0,1785.0,1761.0,2397.0,1759.0,1767.0,1763.0,1767.0,81.34402465820312,-49.60557556152344,-38.78242874145508,Left
4839.0849609375,162246,1,1770.0,1763.0,1757.0,2211.0,1759.0,1755.0,1764.0,1757.0,81.34402465820312,-49.60557556152344,-38.78242874145508,Left
4870.65478515625,162247,1,1764.0,1749.0,1755.0,1959.0,1756.0,1752.0,1762.0,1752.0,81.34402465820312,-49.60557556152344,-38.78242874145508,Left
4872.65478515625,162247,1,1759.0,1767.0,1754.0,1627.0,1751.0,1757.0,1763.0,1749.0,81.34402465820312,-49.60557556152344,-38.78242874145508,Left
4874.65478515625,162247,1,1755.0,1763.0,1757.0,1259.0,1752.0,1767.0,1757.0,1739.0,81.34402465820312,-49.60557556152344,-38.78242874145508,Left
4876.65478515625,162247,1,1771.0,1763.0,1757.0,943.0,1749.0,1757.0,1757.0,1743.0,81.34402465820312,-49.60557556152344,-38.78242874145508,Left
4878.65478515625,162247,1,1763.0,1763.0,1759.0,1098.0,1754.0,1765.0,1765.0,1755.0,81.34402465820312,-49.60557556152344,-38.78242874145508,Left
4870.65478515625,162248,1,1755.0,1754.0,1753.0,1757.0,1747.0,1751.0,1763.0,1741.0,81.34402465820312,-49.60557556152344,-38.78242874145508,Left
4872.65478515625,162248,1,1759.0,1753.0,1757.0,2070.0,1749.0,1765.0,1757.0,1749.0,81.34402465820312,-49.60557556152344,-38.78242874145508,Left
4874.65478515625,162248,1,1755.0,1758.0,1750.0,2357.0,1749.0,1727.0,1763.0,1747.0,81.34402465820312,-49.60557556152344,-38.78242874145508,Left
4876.65478515625,162248,1,1761.0,1764.0,1757.0,2157.0,1752.0,1739.0,1764.0,1750.0,81.34402465820312,-49.60557556152344,-38.78242874145508,Left
4878.65478515625,162248,1,1757.0,1759.0,1755.0,2023.0,1750.0,1704.0,1759.0,1749.0,81.34402465820312,-49.60557556152344,-38.78242874145508,Left
4871.65380859375,162249,1,1755.0,1759.0,1749.0,1636.0,1753.0,1763.0,1762.0,1747.0,81.34402465820312,-49.60557556152344,-38.78242874145508,Left
4873.65380859375,162249,1,1755.0,1764.0,1755.0,1454.0,1751.0,1762.0,1764.0,1743.0,81.34402465820312,-49.60557556152344,-38.78242874145508,Left
4875.65380859375,162249,1,1753.0,1765.0,1759.0,1227.0,1751.0,1759.0,1762.0,1749.0,81.34402465820312,-49.60557556152344,-38.78242874145508,Left
4877.65380859375,162249,1,1757.0,1773.0,1757.0,910.0,1757.0,1764.0,1763.0,1753.0,81.34402465820312,-49.60557556152344,-38.78242874145508,Left
4879.65380859375,162249,1,1763.0,1763.0,1759.0,1043.0,1754.0,1757.0,1762.0,1751.0,81.34402465820312,-49.60557556152344,-38.78242874145508,Left
4873.03173828125,162250,1,1769.0,1755.0,1756.0,1599.0,1746.0,1751.0,1763.0,1751.0,81.34402465820312,-49.60557556152344,-38.78242874145508,Left
4875.03173828125,162250,1,1761.0,1755.0,1757.0,2038.0,1749.0,1749.0,1763.0,1752.0,81.34402465820312,-49.60557556152344,-38.78242874145508,Left
4877.03173828125,162250,1,1757.0,1763.0,1757.0,2203.0,1742.0,1721.0,1759.0,1751.0,81.34402465820312,-49.60557556152344,-38.78242874145508,Left
4879.03173828125,162250,1,1754.0,1757.0,1758.0,2219.0,1747.0,1755.0,1762.0,1747.0,81.34402465820312,-49.60557556152344,-38.78242874145508,Left
4881.03173828125,162250,1,1753.0,1757.0,1761.0,2021.0,1751.0,1756.0,1761.0,1747.0,81.34402465820312,-49.60557556152344,-38.78242874145508,Left
4881.22705078125,162251,1,1758.0,1758.0,1755.0,1815.0,1749.0,1756.0,1763.0,1753.0,81.14327239990234,-49.68896484375,-38.87384033203125,Left
4883.22705078125,162251,1,1771.0,1765.0,1757.0,1609.0,1767.0,1747.0,1763.0,1755.0,81.14327239990234,-49.68896484375,-38.87384033203125,Left
4885.22705078125,162251,1,1765.0,1766.0,1756.0,1183.0,1757.0,1769.0,1763.0,1752.0,81.14327239990234,-49.68896484375,-38.87384033203125,Left
4887.22705078125,162251,1,1765.0,1772.0,1757.0,953.0,1753.0,1755.0,1763.0,1753.0,81.14327239990234,-49.68896484375,-38.87384033203125,Left
4889.22705078125,162251,1,1755.0,1758.0,1755.0,1215.0,1747.0,1755.0,1759.0,1739.0,81.14327239990234,-49.68896484375,-38.87384033203125,Left
4892.34912109375,162252,1,1754.0,1753.0,1750.0,1847.0,1740.0,1723.0,1763.0,1747.0,81.14327239990234,-49.68896484375,-38.87384033203125,Left
4894.34912109375,162252,1,1763.0,1761.0,1757.0,2218.0,1747.0,1741.0,1759.0,1753.0,81.14327239990234,-49.68896484375,-38.87384033203125,Left
4896.34912109375,162252,1,1765.0,1759.0,1759.0,2317.0,1749.0,1755.0,1763.0,1749.0,81.14327239990234,-49.68896484375,-38.87384033203125,Left
4898.34912109375,162252,1,1756.0,1758.0,1755.0,2212.0,1747.0,1757.0,1765.0,1751.0,81.14327239990234,-49.68896484375,-38.87384033203125,Left
4900.34912109375,162252,1,1755.0,1763.0,1757.0,2044.0,1747.0,1749.0,1763.0,1741.0,81.14327239990234,-49.68896484375,-38.87384033203125,Left
4904.53369140625,162253,1,1761.0,1766.0,1758.0,1846.0,1749.0,1755.0,1765.0,1752.0,81.14327239990234,-49.68896484375,-38.87384033203125,Left
4906.53369140625,162253,1,1765.0,1769.0,1757.0,1647.0,1754.0,1755.0,1763.0,1752.0,81.14327239990234,-49.68896484375,-38.87384033203125,Left
4908.53369140625,162253,1,1761.0,1765.0,1759.0,1336.0,1755.0,1755.0,1763.0,1753.0,81.14327239990234,-49.68896484375,-38.87384033203125,Left
4910.53369140625,162253,1,1759.0,1766.0,1759.0,1125.0,1756.0,1767.0,1759.0,1751.0,81.14327239990234,-49.68896484375,-38.87384033203125,Left
4912.53369140625,162253,1,1768.0,1761.0,1757.0,1331.0,1754.0,1747.0,1758.0,1753.0,81.14327239990234,-49.68896484375,-38.87384033203125,Left
4912.2802734375,162254,1,1754.0,1755.0,1749.0,1849.0,1743.0,1747.0,1762.0,1747.0,81.14327239990234,-49.68896484375,-38.87384033203125,Left
4914.2802734375,162254,1,1755.0,1753.0,1757.0,2201.0,1747.0,1737.0,1763.0,1747.0,81.14327239990234,-49.68896484375,-38.87384033203125,Left
4916.2802734375,162254,1,1756.0,1759.0,1759.0,2189.0,1750.0,1751.0,1763.0,1749.0,81.14327239990234,-49.68896484375,-38.87384033203125,Left
4918.2802734375,162254,1,1762.0,1763.0,1758.0,2204.0,1755.0,1767.0,1764.0,1759.0,81.14327239990234,-49.68896484375,-38.87384033203125,Left
4920.2802734375,162254,1,1765.0,1765.0,1762.0,1901.0,1753.0,1770.0,1759.0,1755.0,81.14327239990234,-49.68896484375,-38.87384033203125,Left
4924.94970703125,162255,1,1752.0,1763.0,1753.0,1787.0,1752.0,1759.0,1759.0,1756.0,81.14327239990234,-49.68896484375,-38.87384033203125,Left
4926.94970703125,162255,1,1767.0,1765.0,1763.0,1613.0,1757.0,1759.0,1763.0,1749.0,81.14327239990234,-49.68896484375,-38.87384033203125,Left
4928.94970703125,162255,1,1758.0,1765.0,1757.0,1317.0,1755.0,1755.0,1763.0,1746.0,81.14327239990234,-49.68896484375,-38.87384033203125,Left
4930.94970703125,162255,1,1755.0,1763.0,1756.0,1107.0,1748.0,1741.0,1765.0,1747.0,81.14327239990234,-49.68896484375,-38.87384033203125,Left
4932.94970703125,162255,1,1749.0,1763.0,1761.0,1223.0,1746.0,1751.0,1762.0,1741.0,81.14327239990234,-49.68896484375,-38.87384033203125,Left
4932.6064453125,162256,1,1765.0,1758.0,1757.0,1869.0,1750.0,1746.0,1756.0,1739.0,81.14327239990234,-49.68896484375,-38.87384033203125,Left
4934.6064453125,162256,1,1736.0,1753.0,1757.0,2238.0,1747.0,1741.0,1763.0,1749.0,81.14327239990234,-49.68896484375,-38.87384033203125,Left
4936.6064453125,162256,1,1765.0,1759.0,1757.0,2329.0,1755.0,1757.0,1763.0,1757.0,81.14327239990234,-49.68896484375,-38.87384033203125,Left
4938.6064453125,162256,1,1765.0,1757.0,1759.0,2253.0,1755.0,1755.0,1761.0,1755.0,81.14327239990234,-49.68896484375,-38.87384033203125,Left
4940.6064453125,162256,1,1755.0,1765.0,1758.0,2007.0,1753.0,1753.0,1759.0,1747.0,81.14327239990234,-49.68896484375,-38.87384033203125,Left
4941.8427734375,162257,1,1755.0,1763.0,1757.0,1821.0,1753.0,1755.0,1762.0,1749.0,81.14327239990234,-49.68896484375,-38.87384033203125,Left
