Timestamp_ms,Packet_Number,Trial_ID,Ch1,Ch2,Ch3,Ch4,Ch5,Ch6,Ch7,Ch8,Ch9,Ch10,Ch11,Label
2021.7440185546875,22822,1,1753.0,3835.0,1755.0,1757.0,1755.0,1773.0,1757.0,1747.0,7.465963840484619,8.444450378417969,116.51512145996094,Left
2023.7440185546875,22822,1,1757.0,3835.0,1751.0,1755.0,1755.0,1723.0,1741.0,1752.0,7.465963840484619,8.444450378417969,116.51512145996094,Left
2025.7440185546875,22822,1,1759.0,3834.0,1758.0,1769.0,1759.0,1740.0,1757.0,1747.0,7.465963840484619,8.444450378417969,116.51512145996094,Left
2027.7440185546875,22822,1,1756.0,3255.0,1755.0,1763.0,1746.0,1749.0,1763.0,1750.0,7.465963840484619,8.444450378417969,116.51512145996094,Left
2029.7440185546875,22822,1,1765.0,295.0,1757.0,1756.0,1736.0,1749.0,1775.0,1749.0,7.465963840484619,8.444450378417969,116.51512145996094,Left
2028.7080078125,22823,1,1753.0,0.0,1755.0,1709.0,1715.0,1741.0,1749.0,1751.0,7.465963840484619,8.444450378417969,116.51512145996094,Left
2030.7080078125,22823,1,1755.0,0.0,1757.0,1755.0,1755.0,1751.0,1765.0,1749.0,7.465963840484619,8.444450378417969,116.51512145996094,Left
2032.7080078125,22823,1,1757.0,0.0,1755.0,1775.0,1753.0,1753.0,1754.0,1748.0,7.465963840484619,8.444450378417969,116.51512145996094,Left
2034.7080078125,22823,1,1764.0,0.0,1757.0,1771.0,1756.0,1753.0,1755.0,1753.0,7.465963840484619,8.444450378417969,116.51512145996094,Left
2036.7080078125,22823,1,1758.0,2807.0,1756.0,1758.0,1755.0,1753.0,1754.0,1751.0,7.465963840484619,8.444450378417969,116.51512145996094,Left
2035.9859619140625,22824,1,1756.0,3830.0,1753.0,1749.0,1752.0,1759.0,1746.0,1748.0,7.465963840484619,8.444450378417969,116.51512145996094,Left
2037.9859619140625,22824,1,1759.0,3831.0,1753.0,1735.0,1753.0,1751.0,1737.0,1739.0,7.465963840484619,8.444450378417969,116.51512145996094,Left
2039.9859619140625,22824,1,1763.0,3833.0,1754.0,1756.0,1757.0,1747.0,1747.0,1750.0,7.465963840484619,8.444450378417969,116.51512145996094,Left
2041.9859619140625,22824,1,1765.0,3621.0,1764.0,1783.0,1763.0,1749.0,1775.0,1749.0,7.788662910461426,8.446342468261719,116.52425384521484,Left
2043.9859619140625,22824,1,1747.0,380.0,1752.0,1767.0,1741.0,1766.0,1779.0,1749.0,7.788662910461426,8.446342468261719,116.52425384521484,Left
2047.23291015625,22825,1,1757.0,0.0,1769.0,1759.0,1748.0,1735.0,1779.0,1748.0,7.788662910461426,8.446342468261719,116.52425384521484,Left
2049.23291015625,22825,1,1753.0,0.0,1747.0,1750.0,1747.0,1741.0,1759.0,1748.0,7.788662910461426,8.446342468261719,116.52425384521484,Left
2051.23291015625,22825,1,1754.0,0.0,1757.0,1761.0,1739.0,1755.0,1748.0,1749.0,7.788662910461426,8.446342468261719,116.52425384521484,Left
2053.23291015625,22825,1,1759.0,0.0,1757.0,1747.0,1725.0,1765.0,1747.0,1750.0,7.788662910461426,8.446342468261719,116.52425384521484,Left
2055.23291015625,22825,1,1758.0,2789.0,1759.0,1751.0,1751.0,1741.0,1749.0,1749.0,7.788662910461426,8.446342468261719,116.52425384521484,Left
2055.427001953125,22826,1,1763.0,3849.0,1756.0,1762.0,1763.0,1743.0,1743.0,1752.0,7.788662910461426,8.446342468261719,116.52425384521484,Left
2057.427001953125,22826,1,1754.0,3833.0,1751.0,1757.0,1755.0,1767.0,1754.0,1753.0,7.788662910461426,8.446342468261719,116.52425384521484,Left
2059.427001953125,22826,1,1753.0,3832.0,1750.0,1759.0,1752.0,1743.0,1763.0,1749.0,7.788662910461426,8.446342468261719,116.52425384521484,Left
2061.427001953125,22826,1,1765.0,3836.0,1765.0,1764.0,1763.0,1757.0,1765.0,1750.0,7.788662910461426,8.446342468261719,116.52425384521484,Left
2063.427001953125,22826,1,1765.0,1299.0,1759.0,1767.0,1669.0,1753.0,1775.0,1751.0,7.788662910461426,8.446342468261719,116.52425384521484,Left
2067.6767578125,22827,1,1765.0,0.0,1767.0,1780.0,1785.0,1748.0,1774.0,1747.0,7.788662910461426,8.446342468261719,116.52425384521484,Left
2069.6767578125,22827,1,1758.0,0.0,1755.0,1781.0,1779.0,1737.0,1771.0,1749.0,7.788662910461426,8.446342468261719,116.52425384521484,Left
2071.6767578125,22827,1,1757.0,0.0,1752.0,1756.0,1740.0,1749.0,1753.0,1749.0,7.788662910461426,8.446342468261719,116.52425384521484,Left
2073.6767578125,22827,1,1751.0,108.0,1751.0,1737.0,1733.0,1747.0,1747.0,1747.0,7.788662910461426,8.446342468261719,116.52425384521484,Left
2075.6767578125,22827,1,1763.0,3675.0,1755.0,1699.0,1695.0,1752.0,1739.0,1747.0,7.788662910461426,8.446342468261719,116.52425384521484,Left
2075.633056640625,22828,1,1751.0,3836.0,1752.0,1727.0,1723.0,1753.0,1747.0,1750.0,7.788662910461426,8.446342468261719,116.52425384521484,Left
2077.633056640625,22828,1,1753.0,3831.0,1755.0,1765.0,1751.0,1757.0,1757.0,1749.0,7.788662910461426,8.446342468261719,116.52425384521484,Left
2079.633056640625,22828,1,1757.0,3833.0,1754.0,1769.0,1763.0,1752.0,1759.0,1749.0,7.788662910461426,8.446342468261719,116.52425384521484,Left
2081.633056640625,22828,1,1753.0,3839.0,1763.0,1764.0,1756.0,1750.0,1765.0,1754.0,7.788662910461426,8.446342468261719,116.52425384521484,Left
2083.633056640625,22828,1,1753.0,1480.0,1757.0,1763.0,1756.0,1747.0,1767.0,1749.0,7.788662910461426,8.446342468261719,116.52425384521484,Left
2085.804931640625,22829,1,1759.0,0.0,1768.0,1768.0,1756.0,1755.0,1771.0,1740.0,7.788662910461426,8.446342468261719,116.52425384521484,Left
2087.804931640625,22829,1,1759.0,0.0,1763.0,1765.0,1757.0,1749.0,1765.0,1749.0,7.788662910461426,8.446342468261719,116.52425384521484,Left
2089.804931640625,22829,1,1763.0,0.0,1756.0,1762.0,1753.0,1751.0,1757.0,1752.0,7.788662910461426,8.446342468261719,116.52425384521484,Left
2091.804931640625,22829,1,1757.0,301.0,1755.0,1763.0,1756.0,1753.0,1753.0,1751.0,7.788662910461426,8.446342468261719,116.52425384521484,Left
2093.804931640625,22829,1,1757.0,3836.0,1753.0,1757.0,1757.0,1751.0,1751.0,1749.0,7.788662910461426,8.446342468261719,116.52425384521484,Left
2095.73388671875,22830,1,1755.0,3831.0,1753.0,1755.0,1751.0,1756.0,1763.0,1751.0,7.788662910461426,8.446342468261719,116.52425384521484,Left
2097.73388671875,22830,1,1764.0,3831.0,1756.0,1766.0,1754.0,1755.0,1769.0,1749.0,7.788662910461426,8.446342468261719,116.52425384521484,Left
2099.73388671875,22830,1,1763.0,3834.0,1757.0,1761.0,1735.0,1755.0,1767.0,1749.0,7.788662910461426,8.446342468261719,116.52425384521484,Left
2101.73388671875,22830,1,1755.0,3839.0,1755.0,1763.0,1751.0,1752.0,1747.0,1749.0,7.788662910461426,8.446342468261719,116.52425384521484,Left
2103.73388671875,22830,1,1758.0,1551.0,1759.0,1768.0,1771.0,1751.0,1765.0,1749.0,7.788662910461426,8.446342468261719,116.52425384521484,Left
2105.587890625,22831,1,1763.0,0.0,1766.0,1749.0,1749.0,1747.0,1771.0,1753.0,7.715105056762695,8.490646362304688,116.38322448730469,Left
2107.587890625,22831,1,1753.0,0.0,1762.0,1741.0,1746.0,1743.0,1765.0,1753.0,7.715105056762695,8.490646362304688,116.38322448730469,Left
2109.587890625,22831,1,1755.0,0.0,1755.0,1747.0,1752.0,1747.0,1763.0,1750.0,7.715105056762695,8.490646362304688,116.38322448730469,Left
2111.587890625,22831,1,1757.0,107.0,1752.0,1749.0,1753.0,1752.0,1751.0,1749.0,7.715105056762695,8.490646362304688,116.38322448730469,Left
2113.587890625,22831,1,1758.0,3625.0,1752.0,1763.0,1752.0,1753.0,1757.0,1749.0,7.715105056762695,8.490646362304688,116.38322448730469,Left
2119.70703125,22832,1,1768.0,3845.0,1759.0,1767.0,1749.0,1755.0,1763.0,1751.0,7.715105056762695,8.490646362304688,116.38322448730469,Left
2121.70703125,22832,1,1761.0,3833.0,1756.0,1763.0,1758.0,1751.0,1757.0,1749.0,7.715105056762695,8.490646362304688,116.38322448730469,Left
2123.70703125,22832,1,1758.0,3833.0,1758.0,1759.0,1757.0,1756.0,1764.0,1749.0,7.715105056762695,8.490646362304688,116.38322448730469,Left
2125.70703125,22832,1,1759.0,3847.0,1755.0,1757.0,1756.0,1749.0,1767.0,1749.0,7.715105056762695,8.490646362304688,116.38322448730469,Left
2127.70703125,22832,1,1753.0,1339.0,1759.0,1757.0,1749.0,1753.0,1767.0,1753.0,7.715105056762695,8.490646362304688,116.38322448730469,Left
2130.97509765625,22833,1,1755.0,0.0,1770.0,1749.0,1733.0,1755.0,1766.0,1741.0,7.715105056762695,8.490646362304688,116.38322448730469,Left
2132.97509765625,22833,1,1751.0,0.0,1755.0,1741.0,1709.0,1741.0,1774.0,1749.0,7.715105056762695,8.490646362304688,116.38322448730469,Left
2134.97509765625,22833,1,1765.0,0.0,1755.0,1759.0,1751.0,1721.0,1757.0,1748.0,7.715105056762695,8.490646362304688,116.38322448730469,Left
2136.97509765625,22833,1,1755.0,159.0,1737.0,1764.0,1751.0,1733.0,1751.0,1749.0,7.715105056762695,8.490646362304688,116.38322448730469,Left
2138.97509765625,22833,1,1766.0,3828.0,1757.0,1763.0,1758.0,1768.0,1753.0,1749.0,7.715105056762695,8.490646362304688,116.38322448730469,Left
2135.9951171875,22834,1,1764.0,3837.0,1753.0,1765.0,1756.0,1764.0,1751.0,1751.0,7.715105056762695,8.490646362304688,116.38322448730469,Left
2137.9951171875,22834,1,1757.0,3830.0,1757.0,1763.0,1759.0,1755.0,1759.0,1749.0,7.715105056762695,8.490646362304688,116.38322448730469,Left
2139.9951171875,22834,1,1755.0,3833.0,1763.0,1755.0,1755.0,1775.0,1757.0,1749.0,7.715105056762695,8.490646362304688,116.38322448730469,Left
2141.9951171875,22834,1,1763.0,3834.0,1753.0,1737.0,1750.0,1727.0,1753.0,1747.0,7.715105056762695,8.490646362304688,116.38322448730469,Left
2143.9951171875,22834,1,1755.0,831.0,1763.0,1751.0,1751.0,1741.0,1759.0,1749.0,7.715105056762695,8.490646362304688,116.38322448730469,Left
2147.087158203125,22835,1,1755.0,0.0,1753.0,1767.0,1753.0,1748.0,1769.0,1749.0,7.715105056762695,8.490646362304688,116.38322448730469,Left
2149.087158203125,22835,1,1751.0,0.0,1757.0,1767.0,1735.0,1749.0,1771.0,1749.0,7.715105056762695,8.490646362304688,116.38322448730469,Left
2151.087158203125,22835,1,1749.0,0.0,1752.0,1759.0,1742.0,1743.0,1771.0,1748.0,7.715105056762695,8.490646362304688,116.38322448730469,Left
2153.087158203125,22835,1,1754.0,0.0,1759.0,1748.0,1725.0,1751.0,1759.0,1749.0,7.715105056762695,8.490646362304688,116.38322448730469,Left
2155.087158203125,22835,1,1772.0,1787.0,1759.0,1763.0,1753.0,1764.0,1751.0,1751.0,7.715105056762695,8.490646362304688,116.38322448730469,Left
2156.82421875,22836,1,1756.0,3835.0,1746.0,1752.0,1750.0,1759.0,1747.0,1747.0,7.715105056762695,8.490646362304688,116.38322448730469,Left
2158.82421875,22836,1,1758.0,3836.0,1755.0,1762.0,1750.0,1767.0,1752.0,1747.0,7.715105056762695,8.490646362304688,116.38322448730469,Left
2160.82421875,22836,1,1759.0,3835.0,1756.0,1763.0,1756.0,1743.0,1756.0,1753.0,7.715105056762695,8.490646362304688,116.38322448730469,Left
2162.82421875,22836,1,1771.0,1757.0,1755.0,1763.0,1757.0,1755.0,1755.0,1749.0,7.715105056762695,8.490646362304688,116.38322448730469,Left
2164.82421875,22836,1,1773.0,0.0,1753.0,1754.0,1757.0,1765.0,1771.0,1749.0,7.715105056762695,8.490646362304688,116.38322448730469,Left
2165.796875,22837,1,1771.0,0.0,1753.0,1765.0,1753.0,1716.0,1783.0,1743.0,7.715105056762695,8.490646362304688,116.38322448730469,Left
2167.796875,22837,1,1726.0,0.0,1759.0,1771.0,1763.0,1747.0,1769.0,1749.0,7.715105056762695,8.490646362304688,116.38322448730469,Left
2169.796875,22837,1,1711.0,0.0,1763.0,1771.0,1768.0,1752.0,1765.0,1747.0,7.715105056762695,8.490646362304688,116.38322448730469,Left
2171.796875,22837,1,1773.0,0.0,1762.0,1757.0,1767.0,1756.0,1763.0,1749.0,7.4008564949035645,8.598224639892578,116.17536926269531,Left
2173.796875,22837,1,1773.0,1176.0,1764.0,1763.0,1774.0,1755.0,1756.0,1747.0,7.4008564949035645,8.598224639892578,116.17536926269531,Left
2175.516845703125,22838,1,1758.0,3836.0,1749.0,1749.0,1718.0,1750.0,1752.0,1749.0,7.4008564949035645,8.598224639892578,116.17536926269531,Left
2177.516845703125,22838,1,1757.0,3833.0,1751.0,1737.0,1673.0,1739.0,1747.0,1749.0,7.4008564949035645,8.598224639892578,116.17536926269531,Left
2179.516845703125,22838,1,1752.0,3837.0,1741.0,1722.0,1742.0,1737.0,1737.0,1747.0,7.4008564949035645,8.598224639892578,116.17536926269531,Left
2181.516845703125,22838,1,1756.0,2923.0,1757.0,1741.0,1759.0,1761.0,1757.0,1753.0,7.4008564949035645,8.598224639892578,116.17536926269531,Left
2183.516845703125,22838,1,1766.0,421.0,1767.0,1756.0,1752.0,1745.0,1764.0,1747.0,7.4008564949035645,8.598224639892578,116.17536926269531,Left
2188.336181640625,22839,1,1759.0,0.0,1763.0,1765.0,1757.0,1739.0,1767.0,1743.0,7.4008564949035645,8.598224639892578,116.17536926269531,Left
2190.336181640625,22839,1,1756.0,0.0,1757.0,1762.0,1753.0,1749.0,1769.0,1749.0,7.4008564949035645,8.598224639892578,116.17536926269531,Left
2192.336181640625,22839,1,1770.0,0.0,1757.0,1769.0,1763.0,1759.0,1772.0,1749.0,7.4008564949035645,8.598224639892578,116.17536926269531,Left
2194.336181640625,22839,1,1759.0,0.0,1756.0,1765.0,1764.0,1763.0,1763.0,1749.0,7.4008564949035645,8.598224639892578,116.17536926269531,Left
2196.336181640625,22839,1,1749.0,2569.0,1755.0,1764.0,1763.0,1755.0,1757.0,1749.0,7.4008564949035645,8.598224639892578,116.17536926269531,Left
2199.596923828125,22840,1,1747.0,3835.0,1739.0,1762.0,1752.0,1753.0,1747.0,1748.0,7.4008564949035645,8.598224639892578,116.17536926269531,Left
2201.596923828125,22840,1,1737.0,3837.0,1755.0,1755.0,1754.0,1749.0,1736.0,1741.0,7.4008564949035645,8.598224639892578,116.17536926269531,Left
2203.596923828125,22840,1,1767.0,3833.0,1755.0,1757.0,1753.0,1749.0,1765.0,1749.0,7.4008564949035645,8.598224639892578,116.17536926269531,Left
2205.596923828125,22840,1,1767.0,3568.0,1757.0,1768.0,1753.0,1751.0,1779.0,1751.0,7.4008564949035645,8.598224639892578,116.17536926269531,Left
2207.596923828125,22840,1,1761.0,437.0,1759.0,1767.0,1747.0,1748.0,1773.0,1749.0,7.4008564949035645,8.598224639892578,116.17536926269531,Left
2205.85791015625,22841,1,1755.0,0.0,1747.0,1755.0,1751.0,1745.0,1765.0,1751.0,7.4008564949035645,8.598224639892578,116.17536926269531,Left
2207.85791015625,22841,1,1757.0,0.0,1756.0,1753.0,1752.0,1746.0,1751.0,1748.0,7.4008564949035645,8.598224639892578,116.17536926269531,Left
2209.85791015625,22841,1,1755.0,0.0,1753.0,1755.0,1753.0,1755.0,1747.0,1749.0,7.4008564949035645,8.598224639892578,116.17536926269531,Left
2211.85791015625,22841,1,1759.0,0.0,1755.0,1748.0,1742.0,1751.0,1767.0,1749.0,7.4008564949035645,8.598224639892578,116.17536926269531,Left
2213.85791015625,22841,1,1763.0,2075.0,1754.0,1767.0,1773.0,1756.0,1764.0,1753.0,7.4008564949035645,8.598224639892578,116.17536926269531,Left
2216.412841796875,22842,1,1763.0,3836.0,1755.0,1757.0,1751.0,1751.0,1757.0,1753.0,7.4008564949035645,8.598224639892578,116.17536926269531,Left
2218.412841796875,22842,1,1758.0,3832.0,1752.0,1763.0,1752.0,1752.0,1751.0,1749.0,7.4008564949035645,8.598224639892578,116.17536926269531,Left
2220.412841796875,22842,1,1756.0,3832.0,1757.0,1774.0,1747.0,1751.0,1752.0,1748.0,7.4008564949035645,8.598224639892578,116.17536926269531,Left
2222.412841796875,22842,1,1758.0,3836.0,1756.0,1757.0,1751.0,1751.0,1757.0,1747.0,7.4008564949035645,8.598224639892578,116.17536926269531,Left
2224.412841796875,22842,1,1763.0,2090.0,1763.0,1750.0,1749.0,1747.0,1765.0,1749.0,7.4008564949035645,8.598224639892578,116.17536926269531,Left
2227.21728515625,22843,1,1761.0,151.0,1753.0,1764.0,1757.0,1748.0,1765.0,1747.0,7.4008564949035645,8.598224639892578,116.17536926269531,Left
2229.21728515625,22843,1,1763.0,0.0,1757.0,1742.0,1756.0,1754.0,1767.0,1749.0,7.4008564949035645,8.598224639892578,116.17536926269531,Left
2231.21728515625,22843,1,1751.0,0.0,1751.0,1748.0,1749.0,1772.0,1763.0,1748.0,7.4008564949035645,8.598224639892578,116.17536926269531,Left
2233.21728515625,22843,1,1757.0,431.0,1756.0,1756.0,1747.0,1741.0,1755.0,1753.0,7.4008564949035645,8.598224639892578,116.17536926269531,Left
2235.21728515625,22843,1,1762.0,3327.0,1749.0,1789.0,1763.0,1720.0,1757.0,1749.0,7.4008564949035645,8.598224639892578,116.17536926269531,Left
2235.573974609375,22844,1,1759.0,3837.0,1772.0,1769.0,1753.0,1736.0,1761.0,1747.0,7.4008564949035645,8.598224639892578,116.17536926269531,Left
2237.573974609375,22844,1,1756.0,3829.0,1768.0,1757.0,1736.0,1779.0,1753.0,1749.0,7.324349880218506,8.80093002319336,116.14979553222656,Left
2239.573974609375,22844,1,1759.0,3830.0,1762.0,1755.0,1773.0,1811.0,1759.0,1749.0,7.324349880218506,8.80093002319336,116.14979553222656,Left
2241.573974609375,22844,1,1753.0,3837.0,1687.0,1711.0,1747.0,1704.0,1749.0,1749.0,7.324349880218506,8.80093002319336,116.14979553222656,Left
2243.573974609375,22844,1,1753.0,1084.0,1769.0,1741.0,1735.0,1727.0,1769.0,1751.0,7.324349880218506,8.80093002319336,116.14979553222656,Left
2248.637939453125,22845,1,1767.0,0.0,1799.0,1764.0,1751.0,1767.0,1773.0,1749.0,7.324349880218506,8.80093002319336,116.14979553222656,Left
2250.637939453125,22845,1,1755.0,0.0,1771.0,1741.0,1736.0,1742.0,1763.0,1751.0,7.324349880218506,8.80093002319336,116.14979553222656,Left
2252.637939453125,22845,1,1741.0,0.0,1687.0,1741.0,1719.0,1739.0,1752.0,1749.0,7.324349880218506,8.80093002319336,116.14979553222656,Left
2254.637939453125,22845,1,1753.0,0.0,1724.0,1768.0,1767.0,1763.0,1753.0,1749.0,7.324349880218506,8.80093002319336,116.14979553222656,Left
2256.637939453125,22845,1,1765.0,2568.0,1765.0,1768.0,1803.0,1747.0,1755.0,1750.0,7.324349880218506,8.80093002319336,116.14979553222656,Left
2257.9970703125,22846,1,1767.0,3849.0,1758.0,1787.0,1809.0,1751.0,1767.0,1749.0,7.324349880218506,8.80093002319336,116.14979553222656,Left
2259.9970703125,22846,1,1759.0,3838.0,1763.0,1778.0,1785.0,1756.0,1763.0,1749.0,7.324349880218506,8.80093002319336,116.14979553222656,Left
2261.9970703125,22846,1,1770.0,3832.0,1765.0,1789.0,1766.0,1753.0,1773.0,1749.0,7.324349880218506,8.80093002319336,116.14979553222656,Left
2263.9970703125,22846,1,1753.0,3835.0,1769.0,1749.0,1691.0,1751.0,1763.0,1754.0,7.324349880218506,8.80093002319336,116.14979553222656,Left
2265.9970703125,22846,1,1751.0,1378.0,1761.0,1704.0,1699.0,1741.0,1748.0,1748.0,7.324349880218506,8.80093002319336,116.14979553222656,Left
2265.69287109375,22847,1,1753.0,0.0,1753.0,1738.0,1748.0,1752.0,1754.0,1749.0,7.324349880218506,8.80093002319336,116.14979553222656,Left
2267.69287109375,22847,1,1753.0,0.0,1755.0,1749.0,1735.0,1752.0,1764.0,1750.0,7.324349880218506,8.80093002319336,116.14979553222656,Left
2269.69287109375,22847,1,1756.0,0.0,1755.0,1781.0,1769.0,1769.0,1767.0,1749.0,7.324349880218506,8.80093002319336,116.14979553222656,Left
2271.69287109375,22847,1,1757.0,364.0,1771.0,1764.0,1767.0,1752.0,1764.0,1750.0,7.324349880218506,8.80093002319336,116.14979553222656,Left
2273.69287109375,22847,1,1765.0,2985.0,1767.0,1767.0,1771.0,1753.0,1759.0,1750.0,7.324349880218506,8.80093002319336,116.14979553222656,Left
2276.779052734375,22848,1,1747.0,3852.0,1740.0,1745.0,1699.0,1743.0,1751.0,1749.0,7.324349880218506,8.80093002319336,116.14979553222656,Left
2278.779052734375,22848,1,1762.0,3835.0,1751.0,1753.0,1709.0,1749.0,1752.0,1749.0,7.324349880218506,8.80093002319336,116.14979553222656,Left
2280.779052734375,22848,1,1757.0,3830.0,1759.0,1770.0,1753.0,1752.0,1761.0,1747.0,7.324349880218506,8.80093002319336,116.14979553222656,Left
2282.779052734375,22848,1,1755.0,3833.0,1763.0,1751.0,1766.0,1753.0,1765.0,1749.0,7.324349880218506,8.80093002319336,116.14979553222656,Left
2284.779052734375,22848,1,1763.0,1647.0,1763.0,1771.0,1785.0,1748.0,1766.0,1749.0,7.324349880218506,8.80093002319336,116.14979553222656,Left
2289.5400390625,22849,1,1757.0,55.0,1771.0,1785.0,1787.0,1781.0,1773.0,1753.0,7.324349880218506,8.80093002319336,116.14979553222656,Left
2291.5400390625,22849,1,1768.0,0.0,1764.0,1779.0,1791.0,1738.0,1769.0,1749.0,7.324349880218506,8.80093002319336,116.14979553222656,Left
2293.5400390625,22849,1,1763.0,0.0,1771.0,1783.0,1764.0,1723.0,1765.0,1753.0,7.324349880218506,8.80093002319336,116.14979553222656,Left
2295.5400390625,22849,1,1764.0,663.0,1733.0,1765.0,1733.0,1703.0,1753.0,1748.0,7.324349880218506,8.80093002319336,116.14979553222656,Left
2297.5400390625,22849,1,1787.0,3133.0,1771.0,1764.0,1757.0,1765.0,1747.0,1747.0,7.324349880218506,8.80093002319336,116.14979553222656,Left
2296.7421875,22850,1,1768.0,3835.0,1739.0,1686.0,1705.0,1831.0,1739.0,1739.0,7.324349880218506,8.80093002319336,116.14979553222656,Left
2298.7421875,22850,1,1702.0,3832.0,1661.0,1716.0,1726.0,1717.0,1759.0,1748.0,7.324349880218506,8.80093002319336,116.14979553222656,Left
2300.7421875,22850,1,1747.0,3839.0,1770.0,1761.0,1751.0,1723.0,1763.0,1751.0,7.335946559906006,8.725366592407227,116.07951354980469,Left
2302.7421875,22850,1,1751.0,3399.0,1775.0,1753.0,1711.0,1751.0,1748.0,1749.0,7.335946559906006,8.725366592407227,116.07951354980469,Left
2304.7421875,22850,1,1751.0,1255.0,1789.0,1771.0,1743.0,1763.0,1757.0,1753.0,7.335946559906006,8.725366592407227,116.07951354980469,Left
2307.5029296875,22851,1,1770.0,0.0,1757.0,1755.0,1773.0,1708.0,1763.0,1737.0,7.335946559906006,8.725366592407227,116.07951354980469,Left
2309.5029296875,22851,1,1765.0,0.0,1763.0,1782.0,1773.0,1755.0,1755.0,1750.0,7.335946559906006,8.725366592407227,116.07951354980469,Left
2311.5029296875,22851,1,1766.0,0.0,1756.0,1789.0,1751.0,1766.0,1767.0,1752.0,7.335946559906006,8.725366592407227,116.07951354980469,Left
2313.5029296875,22851,1,1757.0,185.0,1755.0,1783.0,1763.0,1767.0,1759.0,1749.0,7.335946559906006,8.725366592407227,116.07951354980469,Left
2315.5029296875,22851,1,1758.0,2395.0,1759.0,1773.0,1780.0,1755.0,1754.0,1747.0,7.335946559906006,8.725366592407227,116.07951354980469,Left
2330.868896484375,22852,1,1757.0,3839.0,1757.0,1748.0,1733.0,1776.0,1771.0,1739.0,7.335946559906006,8.725366592407227,116.07951354980469,Left
2332.868896484375,22852,1,1755.0,3847.0,1757.0,1740.0,1737.0,1747.0,1755.0,1749.0,7.335946559906006,8.725366592407227,116.07951354980469,Left
2334.868896484375,22852,1,1759.0,3837.0,1752.0,1722.0,1738.0,1749.0,1745.0,1749.0,7.335946559906006,8.725366592407227,116.07951354980469,Left
2336.868896484375,22852,1,1755.0,3677.0,1755.0,1740.0,1735.0,1742.0,1755.0,1751.0,7.335946559906006,8.725366592407227,116.07951354980469,Left
2338.868896484375,22852,1,1755.0,1517.0,1755.0,1765.0,1753.0,1745.0,1757.0,1749.0,7.335946559906006,8.725366592407227,116.07951354980469,Left
2331.93701171875,22853,1,1756.0,149.0,1761.0,1769.0,1767.0,1747.0,1771.0,1752.0,7.335946559906006,8.725366592407227,116.07951354980469,Left
2333.93701171875,22853,1,1756.0,0.0,1757.0,1767.0,1758.0,1747.0,1767.0,1749.0,7.335946559906006,8.725366592407227,116.07951354980469,Left
2335.93701171875,22853,1,1763.0,0.0,1759.0,1747.0,1737.0,1751.0,1755.0,1749.0,7.335946559906006,8.725366592407227,116.07951354980469,Left
2337.93701171875,22853,1,1768.0,0.0,1755.0,1757.0,1752.0,1751.0,1753.0,1747.0,7.335946559906006,8.725366592407227,116.07951354980469,Left
2339.93701171875,22853,1,1765.0,1963.0,1753.0,1759.0,1755.0,1755.0,1739.0,1749.0,7.335946559906006,8.725366592407227,116.07951354980469,Left
2335.2119140625,22854,1,1759.0,3837.0,1754.0,1763.0,1757.0,1751.0,1758.0,1751.0,7.335946559906006,8.725366592407227,116.07951354980469,Left
2337.2119140625,22854,1,1764.0,3835.0,1753.0,1784.0,1757.0,1755.0,1775.0,1748.0,7.335946559906006,8.725366592407227,116.07951354980469,Left
2339.2119140625,22854,1,1763.0,3848.0,1755.0,1769.0,1761.0,1749.0,1758.0,1751.0,7.335946559906006,8.725366592407227,116.07951354980469,Left
2341.2119140625,22854,1,1759.0,3059.0,1757.0,1765.0,1755.0,1753.0,1769.0,1751.0,7.335946559906006,8.725366592407227,116.07951354980469,Left
2343.2119140625,22854,1,1754.0,1295.0,1758.0,1763.0,1747.0,1755.0,1767.0,1751.0,7.335946559906006,8.725366592407227,116.07951354980469,Left
2345.80712890625,22855,1,1755.0,39.0,1758.0,1734.0,1735.0,1748.0,1757.0,1751.0,7.335946559906006,8.725366592407227,116.07951354980469,Left
2347.80712890625,22855,1,1747.0,0.0,1755.0,1723.0,1741.0,1743.0,1757.0,1749.0,7.335946559906006,8.725366592407227,116.07951354980469,Left
2349.80712890625,22855,1,1765.0,0.0,1757.0,1765.0,1759.0,1750.0,1755.0,1750.0,7.335946559906006,8.725366592407227,116.07951354980469,Left
2351.80712890625,22855,1,1766.0,298.0,1755.0,1784.0,1773.0,1753.0,1757.0,1753.0,7.335946559906006,8.725366592407227,116.07951354980469,Left
2353.80712890625,22855,1,1763.0,2221.0,1755.0,1789.0,1771.0,1755.0,1758.0,1749.0,7.335946559906006,8.725366592407227,116.07951354980469,Left
2359.885986328125,22856,1,1763.0,3847.0,1743.0,1785.0,1784.0,1755.0,1759.0,1749.0,7.335946559906006,8.725366592407227,116.07951354980469,Left
2361.885986328125,22856,1,1759.0,3832.0,1751.0,1755.0,1758.0,1753.0,1757.0,1752.0,7.335946559906006,8.725366592407227,116.07951354980469,Left
2363.885986328125,22856,1,1763.0,3835.0,1765.0,1739.0,1741.0,1768.0,1753.0,1748.0,7.335946559906006,8.725366592407227,116.07951354980469,Left
2365.885986328125,22856,1,1753.0,3497.0,1757.0,1718.0,1741.0,1725.0,1757.0,1748.0,7.335946559906006,8.725366592407227,116.07951354980469,Left
2367.885986328125,22856,1,1755.0,1691.0,1751.0,1734.0,1727.0,1747.0,1759.0,1749.0,7.335946559906006,8.725366592407227,116.07951354980469,Left
2365.6220703125,22857,1,1753.0,64.0,1771.0,1747.0,1709.0,1763.0,1769.0,1735.0,7.335946559906006,8.725366592407227,116.07951354980469,Left
2367.6220703125,22857,1,1763.0,0.0,1757.0,1779.0,1749.0,1745.0,1756.0,1750.0,6.906603813171387,8.482930183410645,116.13788604736328,Left
2369.6220703125,22857,1,1746.0,0.0,1747.0,1749.0,1716.0,1733.0,1753.0,1753.0,6.906603813171387,8.482930183410645,116.13788604736328,Left
2371.6220703125,22857,1,1759.0,441.0,1769.0,1763.0,1741.0,1748.0,1757.0,1747.0,6.906603813171387,8.482930183410645,116.13788604736328,Left
2373.6220703125,22857,1,1741.0,2453.0,1725.0,1705.0,1704.0,1715.0,1725.0,1749.0,6.906603813171387,8.482930183410645,116.13788604736328,Left
2376.260009765625,22858,1,1761.0,3838.0,1709.0,1772.0,1803.0,1770.0,1753.0,1748.0,6.906603813171387,8.482930183410645,116.13788604736328,Left
2378.260009765625,22858,1,1759.0,3832.0,1751.0,1748.0,1773.0,1767.0,1752.0,1747.0,6.906603813171387,8.482930183410645,116.13788604736328,Left
2380.260009765625,22858,1,1763.0,3838.0,1772.0,1740.0,1779.0,1776.0,1759.0,1749.0,6.906603813171387,8.482930183410645,116.13788604736328,Left
2382.260009765625,22858,1,1763.0,3371.0,1770.0,1785.0,1753.0,1773.0,1752.0,1751.0,6.906603813171387,8.482930183410645,116.13788604736328,Left
2384.260009765625,22858,1,1757.0,1663.0,1766.0,1833.0,1745.0,1764.0,1800.0,1747.0,6.906603813171387,8.482930183410645,116.13788604736328,Left
2385.706787109375,22859,1,1765.0,210.0,1755.0,1803.0,1788.0,1735.0,1818.0,1749.0,6.906603813171387,8.482930183410645,116.13788604736328,Left
2387.706787109375,22859,1,1771.0,0.0,1763.0,1778.0,1797.0,1746.0,1800.0,1749.0,6.906603813171387,8.482930183410645,116.13788604736328,Left
2389.706787109375,22859,1,1765.0,0.0,1752.0,1752.0,1769.0,1651.0,1765.0,1749.0,6.906603813171387,8.482930183410645,116.13788604736328,Left
2391.706787109375,22859,1,1781.0,201.0,1791.0,1734.0,1727.0,1700.0,1758.0,1749.0,6.906603813171387,8.482930183410645,116.13788604736328,Left
2393.706787109375,22859,1,1751.0,2340.0,1755.0,1745.0,1711.0,1893.0,1746.0,1749.0,6.906603813171387,8.482930183410645,116.13788604736328,Left
2395.801025390625,22860,1,1737.0,3847.0,1721.0,1749.0,1741.0,1899.0,1733.0,1751.0,6.906603813171387,8.482930183410645,116.13788604736328,Left
2397.801025390625,22860,1,1726.0,3831.0,1719.0,1684.0,1723.0,1655.0,1727.0,1747.0,6.906603813171387,8.482930183410645,116.13788604736328,Left
2399.801025390625,22860,1,1749.0,3849.0,1743.0,1721.0,1743.0,1764.0,1749.0,1749.0,6.906603813171387,8.482930183410645,116.13788604736328,Left
2401.801025390625,22860,1,1764.0,3115.0,1745.0,1771.0,1747.0,1735.0,1765.0,1749.0,6.906603813171387,8.482930183410645,116.13788604736328,Left
2403.801025390625,22860,1,1767.0,1337.0,1775.0,1770.0,1760.0,1691.0,1769.0,1754.0,6.906603813171387,8.482930183410645,116.13788604736328,Left
2414.013916015625,22861,1,1785.0,0.0,1763.0,1784.0,1803.0,1830.0,1773.0,1750.0,6.906603813171387,8.482930183410645,116.13788604736328,Left
2416.013916015625,22861,1,1766.0,0.0,1755.0,1772.0,1763.0,1767.0,1755.0,1749.0,6.906603813171387,8.482930183410645,116.13788604736328,Left
2418.013916015625,22861,1,1750.0,0.0,1757.0,1747.0,1690.0,1711.0,1741.0,1751.0,6.906603813171387,8.482930183410645,116.13788604736328,Left
2420.013916015625,22861,1,1738.0,275.0,1772.0,1723.0,1688.0,1738.0,1749.0,1751.0,6.906603813171387,8.482930183410645,116.13788604736328,Left
2422.013916015625,22861,1,1759.0,2504.0,1750.0,1785.0,1757.0,1735.0,1767.0,1747.0,6.906603813171387,8.482930183410645,116.13788604736328,Left
2417.298828125,22862,1,1769.0,3848.0,1759.0,1755.0,1799.0,1743.0,1758.0,1743.0,6.906603813171387,8.482930183410645,116.13788604736328,Left
2419.298828125,22862,1,1776.0,3835.0,1759.0,1763.0,1778.0,1801.0,1784.0,1739.0,6.906603813171387,8.482930183410645,116.13788604736328,Left
2421.298828125,22862,1,1759.0,3838.0,1757.0,1738.0,1743.0,1801.0,1755.0,1750.0,6.906603813171387,8.482930183410645,116.13788604736328,Left
2423.298828125,22862,1,1757.0,3172.0,1765.0,1769.0,1755.0,1725.0,1764.0,1749.0,6.906603813171387,8.482930183410645,116.13788604736328,Left
2425.298828125,22862,1,1764.0,1226.0,1753.0,1773.0,1783.0,1653.0,1763.0,1749.0,6.906603813171387,8.482930183410645,116.13788604736328,Left
2425.557861328125,22863,1,1764.0,0.0,1751.0,1771.0,1761.0,1801.0,1733.0,1746.0,6.906603813171387,8.482930183410645,116.13788604736328,Left
2427.557861328125,22863,1,1757.0,0.0,1766.0,1755.0,1748.0,1741.0,1751.0,1752.0,6.906603813171387,8.482930183410645,116.13788604736328,Left
2429.557861328125,22863,1,1765.0,0.0,1767.0,1784.0,1769.0,1819.0,1772.0,1751.0,6.391873359680176,8.811359405517578,116.23495483398438,Left
2431.557861328125,22863,1,1757.0,0.0,1739.0,1787.0,1772.0,1747.0,1771.0,1751.0,6.391873359680176,8.811359405517578,116.23495483398438,Left
2433.557861328125,22863,1,1765.0,1668.0,1770.0,1771.0,1783.0,1791.0,1803.0,1747.0,6.391873359680176,8.811359405517578,116.23495483398438,Left
2438.35205078125,22864,1,1765.0,3607.0,1747.0,1743.0,1754.0,1525.0,1762.0,1749.0,6.391873359680176,8.811359405517578,116.23495483398438,Left
2440.35205078125,22864,1,1759.0,3835.0,1753.0,1737.0,1707.0,1787.0,1739.0,1747.0,6.391873359680176,8.811359405517578,116.23495483398438,Left
2442.35205078125,22864,1,1752.0,3848.0,1629.0,1717.0,1652.0,1931.0,1725.0,1749.0,6.391873359680176,8.811359405517578,116.23495483398438,Left
2444.35205078125,22864,1,1768.0,2639.0,1673.0,1775.0,1779.0,1843.0,1769.0,1753.0,6.391873359680176,8.811359405517578,116.23495483398438,Left
2446.35205078125,22864,1,1775.0,825.0,1903.0,1699.0,1757.0,1684.0,1737.0,1748.0,6.391873359680176,8.811359405517578,116.23495483398438,Left
2446.091796875,22865,1,1677.0,0.0,1925.0,1737.0,1684.0,1687.0,1783.0,1748.0,6.391873359680176,8.811359405517578,116.23495483398438,Left
2448.091796875,22865,1,1739.0,0.0,1747.0,1785.0,1734.0,1736.0,1784.0,1749.0,6.391873359680176,8.811359405517578,116.23495483398438,Left
2450.091796875,22865,1,1765.0,0.0,1753.0,1775.0,1782.0,1941.0,1767.0,1750.0,6.391873359680176,8.811359405517578,116.23495483398438,Left
2452.091796875,22865,1,1775.0,0.0,1736.0,1767.0,1773.0,1721.0,1753.0,1752.0,6.391873359680176,8.811359405517578,116.23495483398438,Left
2454.091796875,22865,1,1765.0,1813.0,1719.0,1747.0,1775.0,1851.0,1733.0,1749.0,6.391873359680176,8.811359405517578,116.23495483398438,Left
2456.400146484375,22866,1,1751.0,3837.0,1743.0,1741.0,1763.0,1812.0,1737.0,1753.0,6.391873359680176,8.811359405517578,116.23495483398438,Left
2458.400146484375,22866,1,1773.0,3849.0,1775.0,1765.0,1763.0,1735.0,1763.0,1750.0,6.391873359680176,8.811359405517578,116.23495483398438,Left
2460.400146484375,22866,1,1751.0,3833.0,1727.0,1769.0,1749.0,1557.0,1768.0,1749.0,6.391873359680176,8.811359405517578,116.23495483398438,Left
2462.400146484375,22866,1,1766.0,3836.0,1711.0,1783.0,1765.0,1529.0,1779.0,1752.0,6.391873359680176,8.811359405517578,116.23495483398438,Left
2464.400146484375,22866,1,1785.0,2121.0,1717.0,1783.0,1784.0,2092.0,1779.0,1752.0,6.391873359680176,8.811359405517578,116.23495483398438,Left
2467.4248046875,22867,1,1720.0,507.0,1613.0,1748.0,1757.0,2141.0,1771.0,1751.0,6.391873359680176,8.811359405517578,116.23495483398438,Left
2469.4248046875,22867,1,1749.0,0.0,1811.0,1740.0,1747.0,1577.0,1767.0,1749.0,6.391873359680176,8.811359405517578,116.23495483398438,Left
2471.4248046875,22867,1,1775.0,0.0,1581.0,1759.0,1769.0,2021.0,1749.0,1749.0,6.391873359680176,8.811359405517578,116.23495483398438,Left
2473.4248046875,22867,1,1771.0,59.0,1400.0,1746.0,1797.0,1695.0,1751.0,1752.0,6.391873359680176,8.811359405517578,116.23495483398438,Left
2475.4248046875,22867,1,1755.0,2087.0,2277.0,1757.0,1755.0,1459.0,1775.0,1753.0,6.391873359680176,8.811359405517578,116.23495483398438,Left
2481.11669921875,22868,1,1726.0,3837.0,2221.0,1771.0,1721.0,1573.0,1768.0,1740.0,6.391873359680176,8.811359405517578,116.23495483398438,Left
2483.11669921875,22868,1,1746.0,3847.0,1708.0,1720.0,1661.0,1543.0,1734.0,1748.0,6.391873359680176,8.811359405517578,116.23495483398438,Left
2485.11669921875,22868,1,1719.0,3835.0,1492.0,1723.0,1560.0,1829.0,1755.0,1749.0,6.391873359680176,8.811359405517578,116.23495483398438,Left
2487.11669921875,22868,1,1789.0,3023.0,1784.0,1771.0,1803.0,1915.0,1774.0,1749.0,6.391873359680176,8.811359405517578,116.23495483398438,Left
2489.11669921875,22868,1,1799.0,1124.0,1932.0,1775.0,1811.0,1627.0,1752.0,1753.0,6.391873359680176,8.811359405517578,116.23495483398438,Left
2491.06298828125,22869,1,1763.0,0.0,1653.0,1773.0,1784.0,1571.0,1758.0,1743.0,6.391873359680176,8.811359405517578,116.23495483398438,Left
2493.06298828125,22869,1,1769.0,0.0,1733.0,1767.0,1781.0,2019.0,1769.0,1747.0,6.391873359680176,8.811359405517578,116.23495483398438,Left
2495.06298828125,22869,1,1803.0,0.0,1401.0,1782.0,1820.0,1554.0,1756.0,1748.0,6.391873359680176,8.811359405517578,116.23495483398438,Left
2497.06298828125,22869,1,1757.0,0.0,1517.0,1781.0,1769.0,1541.0,1775.0,1750.0,6.391873359680176,8.811359405517578,116.23495483398438,Left
2499.06298828125,22869,1,1703.0,1423.0,1789.0,1753.0,1707.0,1749.0,1736.0,1750.0,6.391873359680176,8.811359405517578,116.23495483398438,Left
2495.364013671875,22870,1,1647.0,3389.0,2202.0,1719.0,1719.0,1849.0,1707.0,1743.0,5.508515357971191,10.104238510131836,116.67552947998047,Left
2497.364013671875,22870,1,1815.0,3833.0,2141.0,1789.0,1788.0,2315.0,1815.0,1749.0,5.508515357971191,10.104238510131836,116.67552947998047,Left
2499.364013671875,22870,1,1775.0,3835.0,1948.0,1737.0,1677.0,2103.0,1752.0,1751.0,5.508515357971191,10.104238510131836,116.67552947998047,Left
2501.364013671875,22870,1,1849.0,3143.0,1159.0,1757.0,1849.0,1375.0,1753.0,1751.0,5.508515357971191,10.104238510131836,116.67552947998047,Left
2503.364013671875,22870,1,1749.0,1415.0,751.0,1720.0,1652.0,1431.0,1759.0,1748.0,5.508515357971191,10.104238510131836,116.67552947998047,Left
2506.655029296875,22871,1,1703.0,0.0,2713.0,1751.0,1711.0,2072.0,1767.0,1747.0,5.508515357971191,10.104238510131836,116.67552947998047,Left
2508.655029296875,22871,1,1663.0,0.0,2531.0,1725.0,1737.0,2232.0,1738.0,1750.0,5.508515357971191,10.104238510131836,116.67552947998047,Left
2510.655029296875,22871,1,1711.0,0.0,1723.0,1761.0,1748.0,1778.0,1753.0,1749.0,5.508515357971191,10.104238510131836,116.67552947998047,Left
2512.655029296875,22871,1,1769.0,245.0,1635.0,1817.0,1773.0,2153.0,1805.0,1754.0,5.508515357971191,10.104238510131836,116.67552947998047,Left
2514.655029296875,22871,1,1817.0,2252.0,1627.0,1763.0,1842.0,1349.0,1762.0,1749.0,5.508515357971191,10.104238510131836,116.67552947998047,Left
2516.069091796875,22872,1,1763.0,3839.0,1609.0,1742.0,1739.0,1288.0,1737.0,1753.0,5.508515357971191,10.104238510131836,116.67552947998047,Left
2518.069091796875,22872,1,1735.0,3836.0,1817.0,1743.0,1768.0,1903.0,1742.0,1753.0,5.508515357971191,10.104238510131836,116.67552947998047,Left
2520.069091796875,22872,1,1803.0,3830.0,1712.0,1764.0,1800.0,2259.0,1767.0,1749.0,5.508515357971191,10.104238510131836,116.67552947998047,Left
2522.069091796875,22872,1,1784.0,3836.0,1437.0,1757.0,1753.0,1367.0,1771.0,1751.0,5.508515357971191,10.104238510131836,116.67552947998047,Left
2524.069091796875,22872,1,1847.0,2973.0,1660.0,1775.0,1810.0,1687.0,1783.0,1748.0,5.508515357971191,10.104238510131836,116.67552947998047,Left
2527.093994140625,22873,1,1863.0,1160.0,1907.0,1779.0,1783.0,2124.0,1779.0,1750.0,5.508515357971191,10.104238510131836,116.67552947998047,Left
2529.093994140625,22873,1,1637.0,303.0,1736.0,1711.0,1691.0,1625.0,1735.0,1747.0,5.508515357971191,10.104238510131836,116.67552947998047,Left
2531.093994140625,22873,1,1531.0,0.0,948.0,1781.0,1671.0,1863.0,1797.0,1753.0,5.508515357971191,10.104238510131836,116.67552947998047,Left
2533.093994140625,22873,1,1733.0,631.0,2495.0,1750.0,1622.0,1914.0,1742.0,1753.0,5.508515357971191,10.104238510131836,116.67552947998047,Left
2535.093994140625,22873,1,1749.0,2335.0,2017.0,1717.0,1765.0,1693.0,1738.0,1748.0,5.508515357971191,10.104238510131836,116.67552947998047,Left
2538.60302734375,22874,1,1691.0,3849.0,1720.0,1725.0,1765.0,1606.0,1721.0,1743.0,5.508515357971191,10.104238510131836,116.67552947998047,Left
2540.60302734375,22874,1,1673.0,3836.0,1893.0,1757.0,1787.0,1715.0,1762.0,1748.0,5.508515357971191,10.104238510131836,116.67552947998047,Left
2542.60302734375,22874,1,1879.0,3839.0,2121.0,1785.0,1821.0,1501.0,1763.0,1751.0,5.508515357971191,10.104238510131836,116.67552947998047,Left
2544.60302734375,22874,1,1895.0,3539.0,1513.0,1755.0,1801.0,1805.0,1764.0,1749.0,5.508515357971191,10.104238510131836,116.67552947998047,Left
2546.60302734375,22874,1,1789.0,1591.0,1597.0,1758.0,1655.0,2399.0,1749.0,1751.0,5.508515357971191,10.104238510131836,116.67552947998047,Left
2545.89208984375,22875,1,1703.0,0.0,1528.0,1759.0,1735.0,1413.0,1767.0,1749.0,5.508515357971191,10.104238510131836,116.67552947998047,Left
2547.89208984375,22875,1,1695.0,0.0,1928.0,1785.0,1829.0,1715.0,1764.0,1749.0,5.508515357971191,10.104238510131836,116.67552947998047,Left
2549.89208984375,22875,1,1701.0,0.0,1469.0,1704.0,1633.0,1755.0,1748.0,1748.0,5.508515357971191,10.104238510131836,116.67552947998047,Left
2551.89208984375,22875,1,1749.0,0.0,1995.0,1787.0,1833.0,1612.0,1789.0,1750.0,5.508515357971191,10.104238510131836,116.67552947998047,Left
2553.89208984375,22875,1,1865.0,1229.0,1688.0,1791.0,1704.0,1477.0,1780.0,1747.0,5.508515357971191,10.104238510131836,116.67552947998047,Left
2556.060791015625,22876,1,1817.0,3029.0,1879.0,1743.0,1693.0,1659.0,1754.0,1749.0,5.508515357971191,10.104238510131836,116.67552947998047,Left
2558.060791015625,22876,1,1718.0,3835.0,1897.0,1799.0,1843.0,1883.0,1752.0,1751.0,5.508515357971191,10.104238510131836,116.67552947998047,Left
2560.060791015625,22876,1,1749.0,3831.0,1565.0,1776.0,1763.0,1763.0,1755.0,1751.0,2.326221466064453,12.700790405273438,116.70777130126953,Left
2562.060791015625,22876,1,1821.0,3279.0,1767.0,1770.0,1823.0,2071.0,1748.0,1749.0,2.326221466064453,12.700790405273438,116.70777130126953,Left
2564.060791015625,22876,1,1787.0,1375.0,1723.0,1725.0,1705.0,2549.0,1781.0,1749.0,2.326221466064453,12.700790405273438,116.70777130126953,Left
2565.89306640625,22877,1,1668.0,0.0,1700.0,1689.0,1663.0,1341.0,1765.0,1751.0,2.326221466064453,12.700790405273438,116.70777130126953,Left
2567.89306640625,22877,1,1849.0,0.0,1309.0,1751.0,1753.0,1511.0,1749.0,1749.0,2.326221466064453,12.700790405273438,116.70777130126953,Left
2569.89306640625,22877,1,1719.0,0.0,2251.0,1763.0,1750.0,1699.0,1753.0,1751.0,2.326221466064453,12.700790405273438,116.70777130126953,Left
2571.89306640625,22877,1,1753.0,0.0,2221.0,1834.0,1830.0,1343.0,1791.0,1748.0,2.326221466064453,12.700790405273438,116.70777130126953,Left
2573.89306640625,22877,1,1775.0,927.0,1337.0,1773.0,1765.0,1767.0,1751.0,1751.0,2.326221466064453,12.700790405273438,116.70777130126953,Left
2575.88916015625,22878,1,1755.0,3109.0,1637.0,1725.0,1820.0,1372.0,1764.0,1749.0,2.326221466064453,12.700790405273438,116.70777130126953,Left
2577.88916015625,22878,1,1750.0,3835.0,1945.0,1679.0,1671.0,1895.0,1693.0,1749.0,2.326221466064453,12.700790405273438,116.70777130126953,Left
2579.88916015625,22878,1,1690.0,3848.0,2079.0,1753.0,1647.0,1690.0,1799.0,1750.0,2.326221466064453,12.700790405273438,116.70777130126953,Left
2581.88916015625,22878,1,1750.0,3037.0,1751.0,1833.0,1743.0,1693.0,1812.0,1751.0,2.326221466064453,12.700790405273438,116.70777130126953,Left
2583.88916015625,22878,1,1829.0,1383.0,1707.0,1799.0,1746.0,2026.0,1790.0,1749.0,2.326221466064453,12.700790405273438,116.70777130126953,Left
2586.579833984375,22879,1,1775.0,0.0,1771.0,1749.0,1884.0,1959.0,1737.0,1747.0,2.326221466064453,12.700790405273438,116.70777130126953,Left
2588.579833984375,22879,1,1701.0,0.0,1626.0,1769.0,1773.0,1465.0,1767.0,1749.0,2.326221466064453,12.700790405273438,116.70777130126953,Left
2590.579833984375,22879,1,1661.0,0.0,1737.0,1741.0,1802.0,1707.0,1727.0,1753.0,2.326221466064453,12.700790405273438,116.70777130126953,Left
2592.579833984375,22879,1,1791.0,0.0,1637.0,1739.0,1767.0,1764.0,1763.0,1749.0,2.326221466064453,12.700790405273438,116.70777130126953,Left
2594.579833984375,22879,1,1755.0,1833.0,1544.0,1743.0,1671.0,1817.0,1749.0,1751.0,2.326221466064453,12.700790405273438,116.70777130126953,Left
2600.49609375,22880,1,1686.0,3850.0,2176.0,1706.0,1753.0,987.0,1761.0,1741.0,2.326221466064453,12.700790405273438,116.70777130126953,Left
2602.49609375,22880,1,1810.0,3849.0,2087.0,1767.0,1741.0,1527.0,1765.0,1750.0,2.326221466064453,12.700790405273438,116.70777130126953,Left
2604.49609375,22880,1,1883.0,3847.0,1670.0,1789.0,1937.0,1815.0,1758.0,1749.0,2.326221466064453,12.700790405273438,116.70777130126953,Left
2606.49609375,22880,1,1705.0,3839.0,1497.0,1725.0,1702.0,1928.0,1775.0,1749.0,2.326221466064453,12.700790405273438,116.70777130126953,Left
2608.49609375,22880,1,1631.0,2969.0,1207.0,1779.0,1751.0,2075.0,1765.0,1752.0,2.326221466064453,12.700790405273438,116.70777130126953,Left
2604.77294921875,22881,1,1705.0,890.0,2357.0,1741.0,1660.0,1579.0,1753.0,1741.0,2.326221466064453,12.700790405273438,116.70777130126953,Left
2606.77294921875,22881,1,1756.0,0.0,2218.0,1725.0,1675.0,1594.0,1735.0,1749.0,2.326221466064453,12.700790405273438,116.70777130126953,Left
2608.77294921875,22881,1,1736.0,0.0,1593.0,1725.0,1704.0,1931.0,1707.0,1746.0,2.326221466064453,12.700790405273438,116.70777130126953,Left
2610.77294921875,22881,1,1771.0,151.0,1687.0,1773.0,1721.0,2138.0,1801.0,1750.0,2.326221466064453,12.700790405273438,116.70777130126953,Left
2612.77294921875,22881,1,1779.0,2107.0,1656.0,1797.0,1833.0,1682.0,1788.0,1747.0,2.326221466064453,12.700790405273438,116.70777130126953,Left
2616.370849609375,22882,1,1876.0,3835.0,1708.0,1787.0,1747.0,1609.0,1755.0,1749.0,2.326221466064453,12.700790405273438,116.70777130126953,Left
2618.370849609375,22882,1,1739.0,3836.0,1615.0,1752.0,1739.0,1469.0,1743.0,1752.0,2.326221466064453,12.700790405273438,116.70777130126953,Left
2620.370849609375,22882,1,1687.0,3835.0,1253.0,1763.0,1867.0,1589.0,1753.0,1751.0,2.326221466064453,12.700790405273438,116.70777130126953,Left
2622.370849609375,22882,1,1745.0,3848.0,1735.0,1738.0,1785.0,1639.0,1739.0,1752.0,2.326221466064453,12.700790405273438,116.70777130126953,Left
2624.370849609375,22882,1,1832.0,2189.0,2461.0,1752.0,1679.0,2567.0,1727.0,1749.0,2.326221466064453,12.700790405273438,116.70777130126953,Left
2625.94091796875,22883,1,1737.0,199.0,1711.0,1757.0,1749.0,1430.0,1759.0,1747.0,2.326221466064453,12.700790405273438,116.70777130126953,Left
2627.94091796875,22883,1,1781.0,0.0,1515.0,1827.0,1811.0,1461.0,1861.0,1749.0,2.326221466064453,12.700790405273438,116.70777130126953,Left
2629.94091796875,22883,1,1583.0,0.0,1883.0,1726.0,1724.0,2125.0,1749.0,1746.0,2.062596321105957,15.7659273147583,119.44690704345703,Left
2631.94091796875,22883,1,1797.0,0.0,1966.0,1769.0,1769.0,1827.0,1784.0,1749.0,2.062596321105957,15.7659273147583,119.44690704345703,Left
2633.94091796875,22883,1,1918.0,1565.0,1763.0,1751.0,1755.0,1515.0,1709.0,1752.0,2.062596321105957,15.7659273147583,119.44690704345703,Left
2636.35791015625,22884,1,1805.0,3836.0,1372.0,1723.0,1715.0,1835.0,1743.0,1751.0,2.062596321105957,15.7659273147583,119.44690704345703,Left
2638.35791015625,22884,1,1710.0,3831.0,1707.0,1781.0,1768.0,1703.0,1768.0,1748.0,2.062596321105957,15.7659273147583,119.44690704345703,Left
2640.35791015625,22884,1,1591.0,3833.0,2110.0,1751.0,1711.0,1989.0,1723.0,1747.0,2.062596321105957,15.7659273147583,119.44690704345703,Left
2642.35791015625,22884,1,1715.0,3339.0,1711.0,1779.0,1669.0,2076.0,1800.0,1749.0,2.062596321105957,15.7659273147583,119.44690704345703,Left
2644.35791015625,22884,1,1802.0,844.0,1605.0,1771.0,1763.0,1645.0,1785.0,1748.0,2.062596321105957,15.7659273147583,119.44690704345703,Left
2647.868896484375,22885,1,1851.0,0.0,1647.0,1721.0,1873.0,1580.0,1741.0,1749.0,2.062596321105957,15.7659273147583,119.44690704345703,Left
2649.868896484375,22885,1,1715.0,0.0,1572.0,1752.0,1702.0,1567.0,1743.0,1751.0,2.062596321105957,15.7659273147583,119.44690704345703,Left
2651.868896484375,22885,1,1755.0,0.0,2004.0,1703.0,1749.0,1428.0,1683.0,1749.0,2.062596321105957,15.7659273147583,119.44690704345703,Left
2653.868896484375,22885,1,1805.0,0.0,1435.0,1749.0,1677.0,2171.0,1827.0,1749.0,2.062596321105957,15.7659273147583,119.44690704345703,Left
2655.868896484375,22885,1,1733.0,1021.0,1867.0,1749.0,1708.0,2021.0,1789.0,1747.0,2.062596321105957,15.7659273147583,119.44690704345703,Left
2655.502197265625,22886,1,1693.0,3847.0,2214.0,1769.0,1759.0,1553.0,1743.0,1736.0,2.062596321105957,15.7659273147583,119.44690704345703,Left
2657.502197265625,22886,1,1811.0,3845.0,1747.0,1735.0,1735.0,2091.0,1710.0,1748.0,2.062596321105957,15.7659273147583,119.44690704345703,Left
2659.502197265625,22886,1,1801.0,3845.0,1797.0,1775.0,1749.0,2012.0,1785.0,1747.0,2.062596321105957,15.7659273147583,119.44690704345703,Left
2661.502197265625,22886,1,1866.0,3833.0,1257.0,1801.0,1787.0,1549.0,1783.0,1747.0,2.062596321105957,15.7659273147583,119.44690704345703,Left
2663.502197265625,22886,1,1789.0,1972.0,1949.0,1806.0,1727.0,1413.0,1778.0,1749.0,2.062596321105957,15.7659273147583,119.44690704345703,Left
2668.123046875,22887,1,1725.0,0.0,1591.0,1716.0,1737.0,2168.0,1753.0,1748.0,2.062596321105957,15.7659273147583,119.44690704345703,Left
2670.123046875,22887,1,1781.0,0.0,1641.0,1755.0,1998.0,1749.0,1768.0,1749.0,2.062596321105957,15.7659273147583,119.44690704345703,Left
2672.123046875,22887,1,1756.0,0.0,2085.0,1769.0,1646.0,1105.0,1762.0,1752.0,2.062596321105957,15.7659273147583,119.44690704345703,Left
2674.123046875,22887,1,1739.0,0.0,1679.0,1753.0,1639.0,1805.0,1745.0,1751.0,2.062596321105957,15.7659273147583,119.44690704345703,Left
2676.123046875,22887,1,1780.0,2253.0,1763.0,1765.0,1797.0,2347.0,1751.0,1753.0,2.062596321105957,15.7659273147583,119.44690704345703,Left
2675.83203125,22888,1,1657.0,3837.0,1647.0,1742.0,1748.0,1783.0,1763.0,1753.0,2.062596321105957,15.7659273147583,119.44690704345703,Left
2677.83203125,22888,1,1805.0,3836.0,1775.0,1742.0,1757.0,1453.0,1755.0,1751.0,2.062596321105957,15.7659273147583,119.44690704345703,Left
2679.83203125,22888,1,1741.0,3836.0,1819.0,1763.0,1757.0,2079.0,1759.0,1747.0,2.062596321105957,15.7659273147583,119.44690704345703,Left
2681.83203125,22888,1,1759.0,3834.0,1695.0,1778.0,1785.0,1727.0,1783.0,1749.0,2.062596321105957,15.7659273147583,119.44690704345703,Left
2683.83203125,22888,1,1784.0,2248.0,1766.0,1771.0,1703.0,1567.0,1755.0,1748.0,2.062596321105957,15.7659273147583,119.44690704345703,Left
2686.43408203125,22889,1,1805.0,0.0,1753.0,1758.0,1711.0,1735.0,1766.0,1747.0,2.062596321105957,15.7659273147583,119.44690704345703,Left
2688.43408203125,22889,1,1785.0,0.0,1583.0,1763.0,1787.0,1761.0,1750.0,1749.0,2.062596321105957,15.7659273147583,119.44690704345703,Left
2690.43408203125,22889,1,1768.0,0.0,1371.0,1753.0,1820.0,1711.0,1775.0,1749.0,2.062596321105957,15.7659273147583,119.44690704345703,Left
2692.43408203125,22889,1,1641.0,0.0,2171.0,1746.0,1767.0,1718.0,1767.0,1753.0,2.062596321105957,15.7659273147583,119.44690704345703,Left
2694.43408203125,22889,1,1757.0,1500.0,2187.0,1755.0,1767.0,1341.0,1757.0,1748.0,2.062596321105957,15.7659273147583,119.44690704345703,Left
2696.762939453125,22890,1,1919.0,3835.0,1757.0,1747.0,1648.0,1909.0,1719.0,1749.0,2.9728126525878906,16.514400482177734,124.58847045898438,Left
2698.762939453125,22890,1,1773.0,3835.0,1463.0,1779.0,1918.0,2589.0,1819.0,1749.0,2.9728126525878906,16.514400482177734,124.58847045898438,Left
2700.762939453125,22890,1,1556.0,3833.0,1670.0,1781.0,1620.0,1646.0,1763.0,1749.0,2.9728126525878906,16.514400482177734,124.58847045898438,Left
2702.762939453125,22890,1,1591.0,3849.0,2045.0,1762.0,1725.0,1469.0,1751.0,1749.0,2.9728126525878906,16.514400482177734,124.58847045898438,Left
2704.762939453125,22890,1,1747.0,1609.0,1693.0,1745.0,1839.0,1829.0,1725.0,1749.0,2.9728126525878906,16.514400482177734,124.58847045898438,Left
2709.712890625,22891,1,1913.0,0.0,1881.0,1756.0,1683.0,1823.0,1771.0,1751.0,2.9728126525878906,16.514400482177734,124.58847045898438,Left
2711.712890625,22891,1,1605.0,0.0,1531.0,1716.0,1747.0,1797.0,1715.0,1747.0,2.9728126525878906,16.514400482177734,124.58847045898438,Left
2713.712890625,22891,1,1751.0,0.0,2105.0,1789.0,1727.0,1708.0,1805.0,1749.0,2.9728126525878906,16.514400482177734,124.58847045898438,Left
2715.712890625,22891,1,1723.0,0.0,1830.0,1803.0,1687.0,1599.0,1796.0,1749.0,2.9728126525878906,16.514400482177734,124.58847045898438,Left
2717.712890625,22891,1,1815.0,1123.0,1459.0,1771.0,1902.0,1791.0,1753.0,1750.0,2.9728126525878906,16.514400482177734,124.58847045898438,Left
2715.806884765625,22892,1,1963.0,3833.0,1648.0,1781.0,1816.0,1532.0,1764.0,1742.0,2.9728126525878906,16.514400482177734,124.58847045898438,Left
2717.806884765625,22892,1,1812.0,3834.0,1775.0,1717.0,1766.0,1549.0,1703.0,1747.0,2.9728126525878906,16.514400482177734,124.58847045898438,Left
2719.806884765625,22892,1,1758.0,3830.0,1757.0,1754.0,1749.0,2093.0,1783.0,1749.0,2.9728126525878906,16.514400482177734,124.58847045898438,Left
2721.806884765625,22892,1,1672.0,3833.0,2388.0,1726.0,1747.0,2072.0,1720.0,1748.0,2.9728126525878906,16.514400482177734,124.58847045898438,Left
2723.806884765625,22892,1,1652.0,3831.0,1597.0,1759.0,1738.0,1615.0,1784.0,1747.0,2.9728126525878906,16.514400482177734,124.58847045898438,Left
2725.622802734375,22893,1,1683.0,957.0,1711.0,1755.0,1694.0,1746.0,1749.0,1751.0,2.9728126525878906,16.514400482177734,124.58847045898438,Left
2727.622802734375,22893,1,1849.0,0.0,1431.0,1779.0,1753.0,1016.0,1787.0,1747.0,2.9728126525878906,16.514400482177734,124.58847045898438,Left
2729.622802734375,22893,1,1814.0,0.0,1816.0,1733.0,1706.0,1885.0,1725.0,1749.0,2.9728126525878906,16.514400482177734,124.58847045898438,Left
2731.622802734375,22893,1,1692.0,138.0,1865.0,1787.0,1753.0,2364.0,1801.0,1749.0,2.9728126525878906,16.514400482177734,124.58847045898438,Left
2733.622802734375,22893,1,1843.0,2613.0,1852.0,1773.0,1737.0,1637.0,1757.0,1749.0,2.9728126525878906,16.514400482177734,124.58847045898438,Left
2736.478759765625,22894,1,1869.0,3832.0,1838.0,1736.0,1733.0,1631.0,1727.0,1751.0,2.9728126525878906,16.514400482177734,124.58847045898438,Left
2738.478759765625,22894,1,1671.0,3839.0,1750.0,1727.0,1803.0,1624.0,1747.0,1749.0,2.9728126525878906,16.514400482177734,124.58847045898438,Left
2740.478759765625,22894,1,1753.0,3839.0,1631.0,1763.0,1724.0,1774.0,1757.0,1749.0,2.9728126525878906,16.514400482177734,124.58847045898438,Left
2742.478759765625,22894,1,1817.0,3847.0,1627.0,1755.0,1757.0,1741.0,1719.0,1749.0,2.9728126525878906,16.514400482177734,124.58847045898438,Left
2744.478759765625,22894,1,1687.0,2403.0,1864.0,1763.0,1787.0,1276.0,1773.0,1748.0,2.9728126525878906,16.514400482177734,124.58847045898438,Left
2747.228759765625,22895,1,1719.0,0.0,1655.0,1786.0,1742.0,2003.0,1814.0,1747.0,2.9728126525878906,16.514400482177734,124.58847045898438,Left
2749.228759765625,22895,1,1821.0,0.0,1927.0,1753.0,1753.0,1689.0,1751.0,1750.0,2.9728126525878906,16.514400482177734,124.58847045898438,Left
2751.228759765625,22895,1,1756.0,0.0,1477.0,1741.0,1677.0,1659.0,1753.0,1750.0,2.9728126525878906,16.514400482177734,124.58847045898438,Left
2753.228759765625,22895,1,1779.0,0.0,1741.0,1757.0,1763.0,1813.0,1763.0,1753.0,2.9728126525878906,16.514400482177734,124.58847045898438,Left
2755.228759765625,22895,1,1774.0,1299.0,1831.0,1754.0,1747.0,1630.0,1756.0,1750.0,2.9728126525878906,16.514400482177734,124.58847045898438,Left
2755.703857421875,22896,1,1809.0,3835.0,1655.0,1767.0,1758.0,1885.0,1763.0,1749.0,2.9728126525878906,16.514400482177734,124.58847045898438,Left
2757.703857421875,22896,1,1690.0,3836.0,1677.0,1768.0,1773.0,1565.0,1741.0,1749.0,2.9728126525878906,16.514400482177734,124.58847045898438,Left
2759.703857421875,22896,1,1739.0,3836.0,1875.0,1743.0,1775.0,1836.0,1751.0,1752.0,1.470489501953125,16.19548797607422,125.01264953613281,Left
2761.703857421875,22896,1,1715.0,3832.0,1711.0,1773.0,1711.0,1939.0,1780.0,1751.0,1.470489501953125,16.19548797607422,125.01264953613281,Left
2763.703857421875,22896,1,1839.0,2356.0,1885.0,1743.0,1779.0,1517.0,1752.0,1749.0,1.470489501953125,16.19548797607422,125.01264953613281,Left
2768.39697265625,22897,1,1763.0,0.0,1815.0,1751.0,1771.0,1887.0,1784.0,1750.0,1.470489501953125,16.19548797607422,125.01264953613281,Left
2770.39697265625,22897,1,1787.0,0.0,1356.0,1785.0,1724.0,1882.0,1799.0,1751.0,1.470489501953125,16.19548797607422,125.01264953613281,Left
2772.39697265625,22897,1,1791.0,0.0,1811.0,1773.0,1733.0,1855.0,1752.0,1749.0,1.470489501953125,16.19548797607422,125.01264953613281,Left
2774.39697265625,22897,1,1691.0,0.0,1779.0,1708.0,1693.0,1396.0,1739.0,1749.0,1.470489501953125,16.19548797607422,125.01264953613281,Left
2776.39697265625,22897,1,1791.0,597.0,1657.0,1733.0,1748.0,1670.0,1739.0,1751.0,1.470489501953125,16.19548797607422,125.01264953613281,Left
2778.996826171875,22898,1,1705.0,3833.0,1961.0,1743.0,1743.0,1960.0,1756.0,1748.0,1.470489501953125,16.19548797607422,125.01264953613281,Left
2780.996826171875,22898,1,1727.0,3832.0,1349.0,1736.0,1871.0,1669.0,1725.0,1749.0,1.470489501953125,16.19548797607422,125.01264953613281,Left
2782.996826171875,22898,1,1719.0,3829.0,1915.0,1759.0,1737.0,1962.0,1756.0,1751.0,1.470489501953125,16.19548797607422,125.01264953613281,Left
2784.996826171875,22898,1,1885.0,3837.0,1823.0,1753.0,1727.0,1765.0,1763.0,1750.0,1.470489501953125,16.19548797607422,125.01264953613281,Left
2786.996826171875,22898,1,1751.0,2137.0,1671.0,1787.0,1755.0,1821.0,1775.0,1751.0,1.470489501953125,16.19548797607422,125.01264953613281,Left
2785.416748046875,22899,1,1740.0,0.0,1597.0,1783.0,1763.0,1543.0,1757.0,1750.0,1.470489501953125,16.19548797607422,125.01264953613281,Left
2787.416748046875,22899,1,1717.0,0.0,1725.0,1754.0,1725.0,1805.0,1753.0,1748.0,1.470489501953125,16.19548797607422,125.01264953613281,Left
2789.416748046875,22899,1,1845.0,0.0,2002.0,1741.0,1752.0,1655.0,1754.0,1749.0,1.470489501953125,16.19548797607422,125.01264953613281,Left
2791.416748046875,22899,1,1749.0,0.0,1527.0,1723.0,1701.0,1685.0,1739.0,1749.0,1.470489501953125,16.19548797607422,125.01264953613281,Left
2793.416748046875,22899,1,1653.0,501.0,1690.0,1766.0,1769.0,1789.0,1784.0,1749.0,1.470489501953125,16.19548797607422,125.01264953613281,Left
2802.367919921875,22900,1,1708.0,3835.0,1869.0,1757.0,1774.0,1765.0,1773.0,1747.0,1.470489501953125,16.19548797607422,125.01264953613281,Left
2804.367919921875,22900,1,1757.0,3837.0,1718.0,1768.0,1732.0,1562.0,1753.0,1747.0,1.470489501953125,16.19548797607422,125.01264953613281,Left
2806.367919921875,22900,1,1773.0,3835.0,1690.0,1765.0,1743.0,1639.0,1749.0,1747.0,1.470489501953125,16.19548797607422,125.01264953613281,Left
2808.367919921875,22900,1,1816.0,3847.0,1855.0,1757.0,1755.0,1862.0,1755.0,1749.0,1.470489501953125,16.19548797607422,125.01264953613281,Left
2810.367919921875,22900,1,1751.0,1861.0,1745.0,1775.0,1773.0,1749.0,1769.0,1750.0,1.470489501953125,16.19548797607422,125.01264953613281,Left
2804.732177734375,22901,1,1815.0,0.0,1669.0,1765.0,1759.0,2103.0,1761.0,1754.0,1.470489501953125,16.19548797607422,125.01264953613281,Left
2806.732177734375,22901,1,1677.0,0.0,1544.0,1755.0,1713.0,1512.0,1754.0,1752.0,1.470489501953125,16.19548797607422,125.01264953613281,Left
2808.732177734375,22901,1,1736.0,0.0,2030.0,1709.0,1759.0,2119.0,1736.0,1740.0,1.470489501953125,16.19548797607422,125.01264953613281,Left
2810.732177734375,22901,1,1855.0,0.0,1613.0,1775.0,1765.0,1605.0,1773.0,1749.0,1.470489501953125,16.19548797607422,125.01264953613281,Left
2812.732177734375,22901,1,1771.0,1397.0,1509.0,1741.0,1759.0,1589.0,1709.0,1749.0,1.470489501953125,16.19548797607422,125.01264953613281,Left
2815.81005859375,22902,1,1619.0,3835.0,1997.0,1745.0,1629.0,2075.0,1799.0,1749.0,1.470489501953125,16.19548797607422,125.01264953613281,Left
2817.81005859375,22902,1,1783.0,3831.0,1659.0,1765.0,1702.0,1752.0,1736.0,1749.0,1.470489501953125,16.19548797607422,125.01264953613281,Left
2819.81005859375,22902,1,1831.0,3836.0,1783.0,1779.0,1912.0,1931.0,1781.0,1752.0,1.470489501953125,16.19548797607422,125.01264953613281,Left
2821.81005859375,22902,1,1590.0,3831.0,1781.0,1767.0,1757.0,1621.0,1778.0,1749.0,1.470489501953125,16.19548797607422,125.01264953613281,Left
2823.81005859375,22902,1,1613.0,2958.0,1578.0,1749.0,1638.0,1706.0,1758.0,1747.0,1.470489501953125,16.19548797607422,125.01264953613281,Left
2825.76806640625,22903,1,1893.0,189.0,1766.0,1757.0,1755.0,1673.0,1759.0,1749.0,1.900302529335022,16.2842960357666,124.57874298095703,Left
2827.76806640625,22903,1,1831.0,0.0,1564.0,1765.0,1809.0,1524.0,1752.0,1751.0,1.900302529335022,16.2842960357666,124.57874298095703,Left
2829.76806640625,22903,1,1763.0,0.0,1867.0,1753.0,1727.0,2323.0,1775.0,1749.0,1.900302529335022,16.2842960357666,124.57874298095703,Left
2831.76806640625,22903,1,1719.0,0.0,1919.0,1746.0,1735.0,1895.0,1779.0,1749.0,1.900302529335022,16.2842960357666,124.57874298095703,Left
2833.76806640625,22903,1,1791.0,747.0,1757.0,1752.0,1765.0,1687.0,1725.0,1749.0,1.900302529335022,16.2842960357666,124.57874298095703,Left
2836.114990234375,22904,1,1759.0,3849.0,1717.0,1753.0,1723.0,1735.0,1759.0,1751.0,1.900302529335022,16.2842960357666,124.57874298095703,Left
2838.114990234375,22904,1,1781.0,3848.0,1740.0,1774.0,1783.0,1774.0,1762.0,1748.0,1.900302529335022,16.2842960357666,124.57874298095703,Left
2840.114990234375,22904,1,1747.0,3836.0,1771.0,1755.0,1683.0,1747.0,1752.0,1751.0,1.900302529335022,16.2842960357666,124.57874298095703,Left
2842.114990234375,22904,1,1767.0,3835.0,1763.0,1769.0,1833.0,1739.0,1771.0,1750.0,1.900302529335022,16.2842960357666,124.57874298095703,Left
2844.114990234375,22904,1,1765.0,1259.0,2005.0,1747.0,1775.0,1783.0,1768.0,1749.0,1.900302529335022,16.2842960357666,124.57874298095703,Left
2847.23193359375,22905,1,1783.0,0.0,1590.0,1749.0,1741.0,1644.0,1749.0,1748.0,1.900302529335022,16.2842960357666,124.57874298095703,Left
2849.23193359375,22905,1,1735.0,0.0,1449.0,1743.0,1658.0,1579.0,1775.0,1747.0,1.900302529335022,16.2842960357666,124.57874298095703,Left
2851.23193359375,22905,1,1752.0,0.0,1998.0,1778.0,1755.0,1390.0,1773.0,1751.0,1.900302529335022,16.2842960357666,124.57874298095703,Left
2853.23193359375,22905,1,1779.0,0.0,2216.0,1751.0,1755.0,2236.0,1747.0,1749.0,1.900302529335022,16.2842960357666,124.57874298095703,Left
2855.23193359375,22905,1,1765.0,791.0,1737.0,1769.0,1785.0,1889.0,1773.0,1749.0,1.900302529335022,16.2842960357666,124.57874298095703,Left
2858.609130859375,22906,1,1765.0,3835.0,1749.0,1765.0,1867.0,1703.0,1753.0,1751.0,1.900302529335022,16.2842960357666,124.57874298095703,Left
2860.609130859375,22906,1,1781.0,3845.0,1547.0,1772.0,1799.0,1693.0,1772.0,1749.0,1.900302529335022,16.2842960357666,124.57874298095703,Left
2862.609130859375,22906,1,1741.0,3836.0,1797.0,1736.0,1582.0,1820.0,1724.0,1748.0,1.900302529335022,16.2842960357666,124.57874298095703,Left
2864.609130859375,22906,1,1822.0,3835.0,1614.0,1735.0,1832.0,1703.0,1751.0,1749.0,1.900302529335022,16.2842960357666,124.57874298095703,Left
2866.609130859375,22906,1,1704.0,3427.0,1743.0,1719.0,1737.0,1606.0,1753.0,1749.0,1.900302529335022,16.2842960357666,124.57874298095703,Left
2867.129150390625,22907,1,1739.0,309.0,1829.0,1749.0,1721.0,1753.0,1783.0,1747.0,1.900302529335022,16.2842960357666,124.57874298095703,Left
2869.129150390625,22907,1,1763.0,0.0,1759.0,1772.0,1702.0,1699.0,1765.0,1751.0,1.900302529335022,16.2842960357666,124.57874298095703,Left
2871.129150390625,22907,1,1751.0,0.0,1669.0,1775.0,1783.0,1691.0,1769.0,1748.0,1.900302529335022,16.2842960357666,124.57874298095703,Left
2873.129150390625,22907,1,1723.0,0.0,1707.0,1733.0,1700.0,1772.0,1746.0,1748.0,1.900302529335022,16.2842960357666,124.57874298095703,Left
2875.129150390625,22907,1,1765.0,1557.0,1862.0,1757.0,1757.0,1670.0,1757.0,1753.0,1.900302529335022,16.2842960357666,124.57874298095703,Left
2875.509033203125,22908,1,1775.0,3851.0,1687.0,1765.0,1775.0,1690.0,1765.0,1740.0,1.900302529335022,16.2842960357666,124.57874298095703,Left
2877.509033203125,22908,1,1765.0,3832.0,1617.0,1775.0,1781.0,1721.0,1763.0,1747.0,1.900302529335022,16.2842960357666,124.57874298095703,Left
2879.509033203125,22908,1,1783.0,3837.0,1981.0,1771.0,1753.0,2041.0,1771.0,1749.0,1.900302529335022,16.2842960357666,124.57874298095703,Left
2881.509033203125,22908,1,1775.0,3835.0,1967.0,1753.0,1709.0,1695.0,1745.0,1750.0,1.900302529335022,16.2842960357666,124.57874298095703,Left
2883.509033203125,22908,1,1683.0,2805.0,1743.0,1759.0,1847.0,1885.0,1769.0,1753.0,1.900302529335022,16.2842960357666,124.57874298095703,Left
2888.427001953125,22909,1,1710.0,0.0,1709.0,1760.0,1757.0,1674.0,1758.0,1749.0,1.900302529335022,16.2842960357666,124.57874298095703,Left
2890.427001953125,22909,1,1815.0,0.0,1763.0,1756.0,1718.0,1797.0,1780.0,1748.0,1.900302529335022,16.2842960357666,124.57874298095703,Left
2892.427001953125,22909,1,1741.0,0.0,1751.0,1752.0,1725.0,1845.0,1759.0,1749.0,2.4020578861236572,16.625625610351562,124.93799591064453,Left
2894.427001953125,22909,1,1753.0,0.0,1726.0,1762.0,1755.0,1805.0,1755.0,1749.0,2.4020578861236572,16.625625610351562,124.93799591064453,Left
2896.427001953125,22909,1,1746.0,1099.0,1705.0,1755.0,1752.0,1644.0,1734.0,1752.0,2.4020578861236572,16.625625610351562,124.93799591064453,Left
2900.329833984375,22910,1,1767.0,3845.0,1877.0,1765.0,1753.0,1689.0,1783.0,1749.0,2.4020578861236572,16.625625610351562,124.93799591064453,Left
2902.329833984375,22910,1,1725.0,3839.0,1687.0,1767.0,1739.0,1751.0,1779.0,1749.0,2.4020578861236572,16.625625610351562,124.93799591064453,Left
2904.329833984375,22910,1,1755.0,3838.0,1708.0,1764.0,1767.0,1773.0,1763.0,1753.0,2.4020578861236572,16.625625610351562,124.93799591064453,Left
2906.329833984375,22910,1,1775.0,3835.0,1897.0,1766.0,1787.0,1544.0,1763.0,1751.0,2.4020578861236572,16.625625610351562,124.93799591064453,Left
2908.329833984375,22910,1,1765.0,1445.0,1645.0,1749.0,1705.0,1617.0,1753.0,1749.0,2.4020578861236572,16.625625610351562,124.93799591064453,Left
2905.702880859375,22911,1,1817.0,0.0,1995.0,1757.0,1691.0,2189.0,1759.0,1737.0,2.4020578861236572,16.625625610351562,124.93799591064453,Left
2907.702880859375,22911,1,1636.0,0.0,1617.0,1740.0,1789.0,1700.0,1739.0,1748.0,2.4020578861236572,16.625625610351562,124.93799591064453,Left
2909.702880859375,22911,1,1733.0,0.0,1763.0,1779.0,1767.0,1636.0,1752.0,1748.0,2.4020578861236572,16.625625610351562,124.93799591064453,Left
2911.702880859375,22911,1,1781.0,0.0,1703.0,1751.0,1727.0,1847.0,1763.0,1751.0,2.4020578861236572,16.625625610351562,124.93799591064453,Left
2913.702880859375,22911,1,1771.0,617.0,1767.0,1752.0,1711.0,1815.0,1755.0,1749.0,2.4020578861236572,16.625625610351562,124.93799591064453,Left
2915.88720703125,22912,1,1811.0,3839.0,1611.0,1752.0,1847.0,1719.0,1755.0,1748.0,2.4020578861236572,16.625625610351562,124.93799591064453,Left
2917.88720703125,22912,1,1755.0,3837.0,1813.0,1758.0,1757.0,1801.0,1755.0,1752.0,2.4020578861236572,16.625625610351562,124.93799591064453,Left
2919.88720703125,22912,1,1751.0,3837.0,1870.0,1746.0,1759.0,1721.0,1735.0,1749.0,2.4020578861236572,16.625625610351562,124.93799591064453,Left
2921.88720703125,22912,1,1752.0,3833.0,1707.0,1757.0,1743.0,2079.0,1779.0,1752.0,2.4020578861236572,16.625625610351562,124.93799591064453,Left
2923.88720703125,22912,1,1695.0,3103.0,1785.0,1776.0,1711.0,1657.0,1782.0,1748.0,2.4020578861236572,16.625625610351562,124.93799591064453,Left
2925.99072265625,22913,1,1753.0,77.0,1673.0,1748.0,1736.0,1629.0,1755.0,1751.0,2.4020578861236572,16.625625610351562,124.93799591064453,Left
2927.99072265625,22913,1,1737.0,0.0,1731.0,1755.0,1769.0,1789.0,1752.0,1750.0,2.4020578861236572,16.625625610351562,124.93799591064453,Left
2929.99072265625,22913,1,1763.0,0.0,1759.0,1773.0,1813.0,1815.0,1780.0,1751.0,2.4020578861236572,16.625625610351562,124.93799591064453,Left
2931.99072265625,22913,1,1736.0,0.0,1685.0,1757.0,1751.0,1693.0,1763.0,1749.0,2.4020578861236572,16.625625610351562,124.93799591064453,Left
2933.99072265625,22913,1,1790.0,1125.0,1903.0,1763.0,1773.0,1947.0,1751.0,1747.0,2.4020578861236572,16.625625610351562,124.93799591064453,Left
2938.779052734375,22914,1,1786.0,3833.0,1727.0,1725.0,1765.0,1625.0,1747.0,1749.0,2.4020578861236572,16.625625610351562,124.93799591064453,Left
2940.779052734375,22914,1,1757.0,3847.0,1753.0,1767.0,1750.0,1699.0,1753.0,1749.0,2.4020578861236572,16.625625610351562,124.93799591064453,Left
2942.779052734375,22914,1,1809.0,3833.0,1779.0,1765.0,1754.0,1895.0,1764.0,1750.0,2.4020578861236572,16.625625610351562,124.93799591064453,Left
2944.779052734375,22914,1,1751.0,3835.0,1734.0,1739.0,1725.0,1735.0,1743.0,1751.0,2.4020578861236572,16.625625610351562,124.93799591064453,Left
2946.779052734375,22914,1,1786.0,3287.0,1716.0,1769.0,1769.0,1709.0,1781.0,1751.0,2.4020578861236572,16.625625610351562,124.93799591064453,Left
2949.85009765625,22915,1,1705.0,776.0,1767.0,1768.0,1711.0,1784.0,1783.0,1743.0,2.4020578861236572,16.625625610351562,124.93799591064453,Left
2951.85009765625,22915,1,1727.0,0.0,1767.0,1764.0,1751.0,1732.0,1789.0,1748.0,2.4020578861236572,16.625625610351562,124.93799591064453,Left
2953.85009765625,22915,1,1721.0,0.0,1755.0,1768.0,1735.0,1717.0,1765.0,1749.0,2.4020578861236572,16.625625610351562,124.93799591064453,Left
2955.85009765625,22915,1,1739.0,0.0,1753.0,1751.0,1723.0,1727.0,1750.0,1751.0,2.4020578861236572,16.625625610351562,124.93799591064453,Left
2957.85009765625,22915,1,1771.0,1738.0,1771.0,1751.0,1852.0,1884.0,1748.0,1750.0,2.4020578861236572,16.625625610351562,124.93799591064453,Left
2955.307861328125,22916,1,1741.0,3833.0,1703.0,1757.0,1738.0,1479.0,1751.0,1749.0,3.2995526790618896,16.57316017150879,125.29821014404297,Left
2957.307861328125,22916,1,1764.0,3833.0,1753.0,1742.0,1688.0,1805.0,1735.0,1751.0,3.2995526790618896,16.57316017150879,125.29821014404297,Left
2959.307861328125,22916,1,1754.0,3835.0,1693.0,1749.0,1769.0,2057.0,1767.0,1751.0,3.2995526790618896,16.57316017150879,125.29821014404297,Left
2961.307861328125,22916,1,1769.0,3833.0,1689.0,1752.0,1749.0,1544.0,1772.0,1747.0,3.2995526790618896,16.57316017150879,125.29821014404297,Left
2963.307861328125,22916,1,1803.0,2547.0,1868.0,1768.0,1741.0,1784.0,1775.0,1750.0,3.2995526790618896,16.57316017150879,125.29821014404297,Left
2965.506103515625,22917,1,1721.0,0.0,1419.0,1740.0,1761.0,1929.0,1787.0,1749.0,3.2995526790618896,16.57316017150879,125.29821014404297,Left
2967.506103515625,22917,1,1705.0,0.0,2249.0,1751.0,1718.0,1801.0,1751.0,1747.0,3.2995526790618896,16.57316017150879,125.29821014404297,Left
2969.506103515625,22917,1,1755.0,0.0,1736.0,1762.0,1764.0,1689.0,1758.0,1749.0,3.2995526790618896,16.57316017150879,125.29821014404297,Left
2971.506103515625,22917,1,1712.0,0.0,1753.0,1759.0,1787.0,1749.0,1758.0,1749.0,3.2995526790618896,16.57316017150879,125.29821014404297,Left
2973.506103515625,22917,1,1748.0,838.0,1783.0,1759.0,1879.0,1673.0,1753.0,1749.0,3.2995526790618896,16.57316017150879,125.29821014404297,Left
2977.94189453125,22918,1,1811.0,3835.0,1701.0,1739.0,1715.0,1609.0,1737.0,1749.0,3.2995526790618896,16.57316017150879,125.29821014404297,Left
2979.94189453125,22918,1,1734.0,3837.0,1701.0,1789.0,1748.0,1807.0,1784.0,1750.0,3.2995526790618896,16.57316017150879,125.29821014404297,Left
2981.94189453125,22918,1,1749.0,3833.0,1853.0,1773.0,1767.0,1705.0,1765.0,1749.0,3.2995526790618896,16.57316017150879,125.29821014404297,Left
2983.94189453125,22918,1,1751.0,3839.0,1677.0,1740.0,1747.0,1785.0,1753.0,1750.0,3.2995526790618896,16.57316017150879,125.29821014404297,Left
2985.94189453125,22918,1,1791.0,2283.0,1735.0,1759.0,1763.0,1797.0,1765.0,1748.0,3.2995526790618896,16.57316017150879,125.29821014404297,Left
3014.346923828125,22919,1,1678.0,0.0,1839.0,1761.0,1722.0,1753.0,1779.0,1735.0,3.2995526790618896,16.57316017150879,125.29821014404297,Left
3016.346923828125,22919,1,1799.0,0.0,1753.0,1763.0,1771.0,1661.0,1749.0,1747.0,3.2995526790618896,16.57316017150879,125.29821014404297,Left
3018.346923828125,22919,1,1763.0,0.0,1743.0,1771.0,1752.0,1801.0,1769.0,1747.0,3.2995526790618896,16.57316017150879,125.29821014404297,Left
3020.346923828125,22919,1,1755.0,0.0,1762.0,1764.0,1737.0,1822.0,1767.0,1749.0,3.2995526790618896,16.57316017150879,125.29821014404297,Left
3022.346923828125,22919,1,1772.0,0.0,1676.0,1753.0,1717.0,1741.0,1759.0,1747.0,3.2995526790618896,16.57316017150879,125.29821014404297,Left
3014.778076171875,22920,1,1753.0,2930.0,1818.0,1751.0,1785.0,1721.0,1755.0,1747.0,3.2995526790618896,16.57316017150879,125.29821014404297,Left
3016.778076171875,22920,1,1781.0,3835.0,1755.0,1749.0,1781.0,1711.0,1747.0,1748.0,3.2995526790618896,16.57316017150879,125.29821014404297,Left
3018.778076171875,22920,1,1717.0,3835.0,1770.0,1748.0,1723.0,1778.0,1737.0,1750.0,3.2995526790618896,16.57316017150879,125.29821014404297,Left
3020.778076171875,22920,1,1767.0,3839.0,1772.0,1765.0,1747.0,1751.0,1766.0,1752.0,3.2995526790618896,16.57316017150879,125.29821014404297,Left
3022.778076171875,22920,1,1771.0,1817.0,1768.0,1767.0,1765.0,1739.0,1767.0,1749.0,3.2995526790618896,16.57316017150879,125.29821014404297,Left
3015.2890625,22921,1,1721.0,0.0,1741.0,1773.0,1765.0,1753.0,1769.0,1748.0,3.2995526790618896,16.57316017150879,125.29821014404297,Left
3017.2890625,22921,1,1759.0,0.0,1769.0,1775.0,1754.0,1722.0,1770.0,1747.0,3.2995526790618896,16.57316017150879,125.29821014404297,Left
3019.2890625,22921,1,1774.0,0.0,1764.0,1753.0,1752.0,1745.0,1755.0,1749.0,3.2995526790618896,16.57316017150879,125.29821014404297,Left
3021.2890625,22921,1,1707.0,0.0,1721.0,1747.0,1738.0,1524.0,1742.0,1749.0,3.2995526790618896,16.57316017150879,125.29821014404297,Left
3023.2890625,22921,1,1823.0,0.0,1699.0,1755.0,1757.0,1786.0,1738.0,1749.0,3.2995526790618896,16.57316017150879,125.29821014404297,Left
3018.44091796875,22922,1,1747.0,3049.0,1621.0,1751.0,1716.0,1873.0,1753.0,1749.0,3.2995526790618896,16.57316017150879,125.29821014404297,Left
3020.44091796875,22922,1,1721.0,3832.0,2197.0,1770.0,1807.0,1933.0,1767.0,1749.0,3.2995526790618896,16.57316017150879,125.29821014404297,Left
3022.44091796875,22922,1,1749.0,3833.0,1508.0,1765.0,1787.0,1641.0,1767.0,1749.0,3.426891803741455,16.719667434692383,125.14048767089844,Left
3024.44091796875,22922,1,1790.0,3848.0,1851.0,1753.0,1775.0,1763.0,1785.0,1752.0,3.426891803741455,16.719667434692383,125.14048767089844,Left
3026.44091796875,22922,1,1755.0,2425.0,1790.0,1759.0,1737.0,1721.0,1765.0,1747.0,3.426891803741455,16.719667434692383,125.14048767089844,Left
3025.049072265625,22923,1,1741.0,39.0,1743.0,1763.0,1737.0,1725.0,1759.0,1747.0,3.426891803741455,16.719667434692383,125.14048767089844,Left
3027.049072265625,22923,1,1751.0,0.0,1587.0,1771.0,1772.0,1704.0,1769.0,1751.0,3.426891803741455,16.719667434692383,125.14048767089844,Left
3029.049072265625,22923,1,1817.0,0.0,1853.0,1771.0,1769.0,1791.0,1753.0,1752.0,3.426891803741455,16.719667434692383,125.14048767089844,Left
3031.049072265625,22923,1,1839.0,0.0,1855.0,1753.0,1755.0,1707.0,1740.0,1753.0,3.426891803741455,16.719667434692383,125.14048767089844,Left
3033.049072265625,22923,1,1821.0,708.0,1673.0,1757.0,1723.0,1490.0,1762.0,1749.0,3.426891803741455,16.719667434692383,125.14048767089844,Left
3036.281982421875,22924,1,1625.0,3839.0,1804.0,1727.0,1695.0,1703.0,1747.0,1750.0,3.426891803741455,16.719667434692383,125.14048767089844,Left
3038.281982421875,22924,1,1567.0,3832.0,1749.0,1716.0,1689.0,1973.0,1725.0,1749.0,3.426891803741455,16.719667434692383,125.14048767089844,Left
3040.281982421875,22924,1,1765.0,3832.0,1783.0,1771.0,1734.0,1846.0,1776.0,1750.0,3.426891803741455,16.719667434692383,125.14048767089844,Left
3042.281982421875,22924,1,1720.0,3831.0,1816.0,1766.0,1817.0,1775.0,1765.0,1749.0,3.426891803741455,16.719667434692383,125.14048767089844,Left
3044.281982421875,22924,1,1799.0,2963.0,1657.0,1769.0,1765.0,1688.0,1763.0,1746.0,3.426891803741455,16.719667434692383,125.14048767089844,Left
3047.048828125,22925,1,1725.0,0.0,1765.0,1775.0,1736.0,1703.0,1772.0,1747.0,3.426891803741455,16.719667434692383,125.14048767089844,Left
3049.048828125,22925,1,1805.0,0.0,1702.0,1775.0,1749.0,1628.0,1759.0,1749.0,3.426891803741455,16.719667434692383,125.14048767089844,Left
3051.048828125,22925,1,1757.0,0.0,1827.0,1765.0,1669.0,1811.0,1752.0,1751.0,3.426891803741455,16.719667434692383,125.14048767089844,Left
3053.048828125,22925,1,1763.0,0.0,1675.0,1755.0,1815.0,1800.0,1758.0,1749.0,3.426891803741455,16.719667434692383,125.14048767089844,Left
3055.048828125,22925,1,1807.0,56.0,1767.0,1745.0,1829.0,1709.0,1763.0,1749.0,3.426891803741455,16.719667434692383,125.14048767089844,Left
3055.9541015625,22926,1,1765.0,3481.0,1701.0,1755.0,1747.0,1788.0,1768.0,1752.0,3.426891803741455,16.719667434692383,125.14048767089844,Left
3057.9541015625,22926,1,1757.0,3832.0,1803.0,1751.0,1677.0,1741.0,1752.0,1747.0,3.426891803741455,16.719667434692383,125.14048767089844,Left
3059.9541015625,22926,1,1736.0,3836.0,1822.0,1747.0,1737.0,1758.0,1757.0,1749.0,3.426891803741455,16.719667434692383,125.14048767089844,Left
3061.9541015625,22926,1,1803.0,3835.0,1822.0,1768.0,1771.0,1717.0,1769.0,1751.0,3.426891803741455,16.719667434692383,125.14048767089844,Left
3063.9541015625,22926,1,1749.0,2860.0,1557.0,1768.0,1813.0,1467.0,1747.0,1753.0,3.426891803741455,16.719667434692383,125.14048767089844,Left
3067.611083984375,22927,1,1781.0,139.0,1769.0,1765.0,1771.0,2077.0,1769.0,1747.0,3.426891803741455,16.719667434692383,125.14048767089844,Left
3069.611083984375,22927,1,1755.0,0.0,1647.0,1755.0,1746.0,1877.0,1781.0,1747.0,3.426891803741455,16.719667434692383,125.14048767089844,Left
3071.611083984375,22927,1,1773.0,0.0,1789.0,1751.0,1673.0,1779.0,1743.0,1751.0,3.426891803741455,16.719667434692383,125.14048767089844,Left
3073.611083984375,22927,1,1700.0,0.0,1996.0,1755.0,1805.0,1636.0,1763.0,1748.0,3.426891803741455,16.719667434692383,125.14048767089844,Left
3075.611083984375,22927,1,1769.0,781.0,1671.0,1752.0,1726.0,1708.0,1763.0,1752.0,3.426891803741455,16.719667434692383,125.14048767089844,Left
3077.425048828125,22928,1,1747.0,3853.0,1748.0,1752.0,1703.0,1926.0,1753.0,1749.0,3.426891803741455,16.719667434692383,125.14048767089844,Left
3079.425048828125,22928,1,1753.0,3839.0,1757.0,1749.0,1847.0,1727.0,1755.0,1750.0,3.426891803741455,16.719667434692383,125.14048767089844,Left
3081.425048828125,22928,1,1755.0,3832.0,1738.0,1768.0,1755.0,1663.0,1779.0,1747.0,3.426891803741455,16.719667434692383,125.14048767089844,Left
3083.425048828125,22928,1,1764.0,3848.0,1767.0,1763.0,1766.0,1726.0,1741.0,1749.0,3.426891803741455,16.719667434692383,125.14048767089844,Left
3085.425048828125,22928,1,1758.0,2957.0,1765.0,1749.0,1761.0,1786.0,1749.0,1747.0,3.502424955368042,16.921255111694336,125.10983276367188,Left
3085.36376953125,22929,1,1768.0,1.0,1725.0,1764.0,1747.0,1686.0,1766.0,1751.0,3.502424955368042,16.921255111694336,125.10983276367188,Left
3087.36376953125,22929,1,1765.0,0.0,1773.0,1781.0,1751.0,1880.0,1785.0,1748.0,3.502424955368042,16.921255111694336,125.10983276367188,Left
3089.36376953125,22929,1,1757.0,0.0,1711.0,1775.0,1750.0,1693.0,1781.0,1749.0,3.502424955368042,16.921255111694336,125.10983276367188,Left
3091.36376953125,22929,1,1785.0,0.0,1720.0,1757.0,1752.0,1805.0,1756.0,1749.0,3.502424955368042,16.921255111694336,125.10983276367188,Left
3093.36376953125,22929,1,1763.0,281.0,1883.0,1752.0,1755.0,1721.0,1752.0,1751.0,3.502424955368042,16.921255111694336,125.10983276367188,Left
3099.81494140625,22930,1,1768.0,3847.0,1660.0,1737.0,1711.0,1707.0,1747.0,1750.0,3.502424955368042,16.921255111694336,125.10983276367188,Left
3101.81494140625,22930,1,1733.0,3833.0,1757.0,1747.0,1721.0,1715.0,1752.0,1748.0,3.502424955368042,16.921255111694336,125.10983276367188,Left
3103.81494140625,22930,1,1769.0,3827.0,1833.0,1757.0,1772.0,1783.0,1755.0,1749.0,3.502424955368042,16.921255111694336,125.10983276367188,Left
3105.81494140625,22930,1,1831.0,3835.0,1673.0,1752.0,1737.0,1711.0,1753.0,1749.0,3.502424955368042,16.921255111694336,125.10983276367188,Left
3107.81494140625,22930,1,1704.0,3609.0,1696.0,1751.0,1705.0,1742.0,1749.0,1751.0,3.502424955368042,16.921255111694336,125.10983276367188,Left
3108.52978515625,22931,1,1701.0,543.0,2154.0,1778.0,1798.0,1768.0,1779.0,1747.0,3.502424955368042,16.921255111694336,125.10983276367188,Left
3110.52978515625,22931,1,1810.0,0.0,1693.0,1751.0,1755.0,1903.0,1767.0,1749.0,3.502424955368042,16.921255111694336,125.10983276367188,Left
3112.52978515625,22931,1,1755.0,0.0,1673.0,1788.0,1766.0,1567.0,1805.0,1749.0,3.502424955368042,16.921255111694336,125.10983276367188,Left
3114.52978515625,22931,1,1771.0,0.0,1735.0,1759.0,1739.0,1940.0,1753.0,1749.0,3.502424955368042,16.921255111694336,125.10983276367188,Left
3116.52978515625,22931,1,1705.0,380.0,1681.0,1748.0,1669.0,1737.0,1741.0,1751.0,3.502424955368042,16.921255111694336,125.10983276367188,Left
3115.39697265625,22932,1,1823.0,3653.0,1740.0,1757.0,1747.0,1662.0,1741.0,1749.0,3.502424955368042,16.921255111694336,125.10983276367188,Left
3117.39697265625,22932,1,1681.0,3837.0,1733.0,1757.0,1800.0,1861.0,1753.0,1750.0,3.502424955368042,16.921255111694336,125.10983276367188,Left
3119.39697265625,22932,1,1754.0,3832.0,1692.0,1751.0,1661.0,1781.0,1765.0,1751.0,3.502424955368042,16.921255111694336,125.10983276367188,Left
3121.39697265625,22932,1,1783.0,3845.0,1754.0,1757.0,1855.0,1782.0,1768.0,1748.0,3.502424955368042,16.921255111694336,125.10983276367188,Left
3123.39697265625,22932,1,1739.0,2525.0,1957.0,1737.0,1750.0,1703.0,1742.0,1751.0,3.502424955368042,16.921255111694336,125.10983276367188,Left
3125.84716796875,22933,1,1799.0,0.0,1851.0,1753.0,1746.0,1747.0,1755.0,1740.0,3.502424955368042,16.921255111694336,125.10983276367188,Left
3127.84716796875,22933,1,1757.0,0.0,1597.0,1770.0,1741.0,1656.0,1759.0,1749.0,3.502424955368042,16.921255111694336,125.10983276367188,Left
3129.84716796875,22933,1,1741.0,0.0,1661.0,1752.0,1727.0,1820.0,1773.0,1752.0,3.502424955368042,16.921255111694336,125.10983276367188,Left
3131.84716796875,22933,1,1741.0,0.0,1869.0,1745.0,1687.0,1759.0,1751.0,1748.0,3.502424955368042,16.921255111694336,125.10983276367188,Left
3133.84716796875,22933,1,1768.0,523.0,1883.0,1761.0,1739.0,1655.0,1754.0,1747.0,3.502424955368042,16.921255111694336,125.10983276367188,Left
3135.654052734375,22934,1,1828.0,3847.0,1721.0,1773.0,1839.0,1836.0,1767.0,1749.0,3.502424955368042,16.921255111694336,125.10983276367188,Left
3137.654052734375,22934,1,1741.0,3835.0,1884.0,1782.0,1847.0,1844.0,1775.0,1748.0,3.502424955368042,16.921255111694336,125.10983276367188,Left
3139.654052734375,22934,1,1684.0,3835.0,1675.0,1765.0,1813.0,1694.0,1755.0,1748.0,3.502424955368042,16.921255111694336,125.10983276367188,Left
3141.654052734375,22934,1,1807.0,3835.0,1989.0,1747.0,1612.0,1698.0,1742.0,1749.0,3.502424955368042,16.921255111694336,125.10983276367188,Left
3143.654052734375,22934,1,1717.0,3511.0,1579.0,1735.0,1771.0,1327.0,1753.0,1749.0,3.502424955368042,16.921255111694336,125.10983276367188,Left
3146.150146484375,22935,1,1803.0,568.0,1813.0,1771.0,1708.0,1816.0,1755.0,1749.0,3.502424955368042,16.921255111694336,125.10983276367188,Left
3148.150146484375,22935,1,1789.0,0.0,1750.0,1757.0,1785.0,2041.0,1775.0,1747.0,3.502424955368042,16.921255111694336,125.10983276367188,Left
3150.150146484375,22935,1,1775.0,0.0,1982.0,1750.0,1763.0,1787.0,1765.0,1749.0,3.4366021156311035,17.16339683532715,125.19548034667969,Left
3152.150146484375,22935,1,1769.0,0.0,1613.0,1743.0,1672.0,1745.0,1749.0,1749.0,3.4366021156311035,17.16339683532715,125.19548034667969,Left
3154.150146484375,22935,1,1778.0,519.0,1726.0,1767.0,1845.0,1754.0,1753.0,1749.0,3.4366021156311035,17.16339683532715,125.19548034667969,Left
3156.662841796875,22936,1,1645.0,3838.0,1679.0,1746.0,1739.0,1711.0,1753.0,1749.0,3.4366021156311035,17.16339683532715,125.19548034667969,Left
3158.662841796875,22936,1,1723.0,3833.0,1749.0,1750.0,1724.0,1721.0,1752.0,1747.0,3.4366021156311035,17.16339683532715,125.19548034667969,Left
3160.662841796875,22936,1,1765.0,3835.0,1751.0,1771.0,1771.0,1738.0,1753.0,1749.0,3.4366021156311035,17.16339683532715,125.19548034667969,Left
3162.662841796875,22936,1,1740.0,3835.0,1806.0,1775.0,1766.0,1748.0,1759.0,1749.0,3.4366021156311035,17.16339683532715,125.19548034667969,Left
3164.662841796875,22936,1,1817.0,2137.0,1711.0,1757.0,1709.0,1719.0,1749.0,1749.0,3.4366021156311035,17.16339683532715,125.19548034667969,Left
3165.38916015625,22937,1,1705.0,0.0,1782.0,1783.0,1845.0,1779.0,1829.0,1749.0,3.4366021156311035,17.16339683532715,125.19548034667969,Left
3167.38916015625,22937,1,1787.0,0.0,1771.0,1771.0,1741.0,1774.0,1779.0,1748.0,3.4366021156311035,17.16339683532715,125.19548034667969,Left
3169.38916015625,22937,1,1865.0,0.0,1736.0,1757.0,1747.0,1724.0,1767.0,1751.0,3.4366021156311035,17.16339683532715,125.19548034667969,Left
3171.38916015625,22937,1,1707.0,0.0,1759.0,1783.0,1819.0,1779.0,1767.0,1748.0,3.4366021156311035,17.16339683532715,125.19548034667969,Left
3173.38916015625,22937,1,1773.0,0.0,1627.0,1757.0,1701.0,1531.0,1753.0,1752.0,3.4366021156311035,17.16339683532715,125.19548034667969,Left
3178.154052734375,22938,1,1747.0,2616.0,1792.0,1724.0,1679.0,2013.0,1727.0,1750.0,3.4366021156311035,17.16339683532715,125.19548034667969,Left
3180.154052734375,22938,1,1769.0,3836.0,1961.0,1736.0,1751.0,1701.0,1734.0,1752.0,3.4366021156311035,17.16339683532715,125.19548034667969,Left
3182.154052734375,22938,1,1735.0,3834.0,1709.0,1758.0,1787.0,1763.0,1753.0,1748.0,3.4366021156311035,17.16339683532715,125.19548034667969,Left
3184.154052734375,22938,1,1810.0,3836.0,1765.0,1748.0,1721.0,1723.0,1764.0,1751.0,3.4366021156311035,17.16339683532715,125.19548034667969,Left
3186.154052734375,22938,1,1749.0,3059.0,1707.0,1767.0,1721.0,1718.0,1771.0,1747.0,3.4366021156311035,17.16339683532715,125.19548034667969,Left
3185.38916015625,22939,1,1755.0,343.0,1839.0,1769.0,1659.0,1772.0,1769.0,1749.0,3.4366021156311035,17.16339683532715,125.19548034667969,Left
3187.38916015625,22939,1,1764.0,0.0,1740.0,1762.0,1669.0,1716.0,1769.0,1741.0,3.4366021156311035,17.16339683532715,125.19548034667969,Left
3189.38916015625,22939,1,1761.0,0.0,1545.0,1763.0,1965.0,1705.0,1765.0,1748.0,3.4366021156311035,17.16339683532715,125.19548034667969,Left
3191.38916015625,22939,1,1785.0,0.0,2108.0,1747.0,1773.0,1851.0,1753.0,1750.0,3.4366021156311035,17.16339683532715,125.19548034667969,Left
3193.38916015625,22939,1,1769.0,0.0,1511.0,1763.0,1709.0,1631.0,1758.0,1749.0,3.4366021156311035,17.16339683532715,125.19548034667969,Left
3195.785888671875,22940,1,1743.0,3196.0,1799.0,1736.0,1700.0,1869.0,1739.0,1751.0,3.4366021156311035,17.16339683532715,125.19548034667969,Left
3197.785888671875,22940,1,1757.0,3833.0,1755.0,1757.0,1766.0,1689.0,1749.0,1749.0,3.4366021156311035,17.16339683532715,125.19548034667969,Left
3199.785888671875,22940,1,1807.0,3835.0,1724.0,1775.0,1788.0,1739.0,1776.0,1753.0,3.4366021156311035,17.16339683532715,125.19548034667969,Left
3201.785888671875,22940,1,1707.0,3834.0,1720.0,1769.0,1711.0,1644.0,1765.0,1749.0,3.4366021156311035,17.16339683532715,125.19548034667969,Left
3203.785888671875,22940,1,1763.0,3637.0,1715.0,1771.0,1782.0,1607.0,1775.0,1749.0,3.4366021156311035,17.16339683532715,125.19548034667969,Left
3208.0458984375,22941,1,1807.0,1176.0,1545.0,1762.0,1771.0,1743.0,1769.0,1747.0,3.4366021156311035,17.16339683532715,125.19548034667969,Left
3210.0458984375,22941,1,1717.0,0.0,1892.0,1711.0,1710.0,1831.0,1723.0,1752.0,3.4366021156311035,17.16339683532715,125.19548034667969,Left
3212.0458984375,22941,1,1708.0,0.0,1769.0,1741.0,1686.0,1852.0,1783.0,1750.0,3.4366021156311035,17.16339683532715,125.19548034667969,Left
3214.0458984375,22941,1,1765.0,0.0,1821.0,1775.0,1749.0,1843.0,1780.0,1749.0,3.4366021156311035,17.16339683532715,125.19548034667969,Left
3216.0458984375,22941,1,1772.0,1701.0,1596.0,1757.0,1813.0,1754.0,1755.0,1749.0,3.398498058319092,17.169658660888672,125.17408752441406,Left
3216.10009765625,22942,1,1771.0,3845.0,1716.0,1767.0,1821.0,1651.0,1754.0,1752.0,3.398498058319092,17.169658660888672,125.17408752441406,Left
3218.10009765625,22942,1,1752.0,3831.0,1711.0,1749.0,1673.0,1672.0,1739.0,1749.0,3.398498058319092,17.169658660888672,125.17408752441406,Left
3220.10009765625,22942,1,1702.0,3831.0,1901.0,1756.0,1608.0,1654.0,1743.0,1748.0,3.398498058319092,17.169658660888672,125.17408752441406,Left
3222.10009765625,22942,1,1797.0,3831.0,1755.0,1756.0,1958.0,1784.0,1747.0,1749.0,3.398498058319092,17.169658660888672,125.17408752441406,Left
3224.10009765625,22942,1,1783.0,3838.0,1781.0,1771.0,1797.0,1848.0,1780.0,1749.0,3.398498058319092,17.169658660888672,125.17408752441406,Left
3225.677978515625,22943,1,1749.0,719.0,1717.0,1756.0,1737.0,1753.0,1759.0,1750.0,3.398498058319092,17.169658660888672,125.17408752441406,Left
3227.677978515625,22943,1,1753.0,0.0,1591.0,1767.0,1748.0,1707.0,1771.0,1751.0,3.398498058319092,17.169658660888672,125.17408752441406,Left
3229.677978515625,22943,1,1765.0,0.0,1942.0,1771.0,1707.0,1919.0,1783.0,1750.0,3.398498058319092,17.169658660888672,125.17408752441406,Left
3231.677978515625,22943,1,1783.0,0.0,1989.0,1763.0,1718.0,1767.0,1765.0,1751.0,3.398498058319092,17.169658660888672,125.17408752441406,Left
3233.677978515625,22943,1,1737.0,0.0,1719.0,1763.0,1768.0,1702.0,1747.0,1748.0,3.398498058319092,17.169658660888672,125.17408752441406,Left
3236.68505859375,22944,1,1753.0,3682.0,1663.0,1749.0,1763.0,1720.0,1755.0,1749.0,3.398498058319092,17.169658660888672,125.17408752441406,Left
3238.68505859375,22944,1,1682.0,3837.0,1813.0,1763.0,1824.0,1805.0,1743.0,1751.0,3.398498058319092,17.169658660888672,125.17408752441406,Left
3240.68505859375,22944,1,1784.0,3835.0,1717.0,1755.0,1741.0,1619.0,1764.0,1748.0,3.398498058319092,17.169658660888672,125.17408752441406,Left
3242.68505859375,22944,1,1766.0,3835.0,1747.0,1776.0,1785.0,1687.0,1763.0,1751.0,3.398498058319092,17.169658660888672,125.17408752441406,Left
3244.68505859375,22944,1,1827.0,3293.0,1764.0,1757.0,1801.0,1746.0,1755.0,1751.0,3.398498058319092,17.169658660888672,125.17408752441406,Left
3245.6171875,22945,1,1749.0,213.0,1661.0,1751.0,1737.0,1775.0,1769.0,1749.0,3.398498058319092,17.169658660888672,125.17408752441406,Left
3247.6171875,22945,1,1723.0,0.0,1875.0,1798.0,1725.0,1783.0,1784.0,1751.0,3.398498058319092,17.169658660888672,125.17408752441406,Left
3249.6171875,22945,1,1738.0,0.0,1709.0,1749.0,1695.0,1779.0,1751.0,1749.0,3.398498058319092,17.169658660888672,125.17408752441406,Left
3251.6171875,22945,1,1748.0,0.0,1852.0,1740.0,1711.0,1763.0,1721.0,1751.0,3.398498058319092,17.169658660888672,125.17408752441406,Left
3253.6171875,22945,1,1727.0,0.0,1783.0,1756.0,1711.0,1875.0,1769.0,1749.0,3.398498058319092,17.169658660888672,125.17408752441406,Left
3257.195068359375,22946,1,1763.0,2387.0,1737.0,1772.0,1725.0,1707.0,1787.0,1747.0,3.398498058319092,17.169658660888672,125.17408752441406,Left
3259.195068359375,22946,1,1805.0,3833.0,1755.0,1765.0,1807.0,1750.0,1771.0,1749.0,3.398498058319092,17.169658660888672,125.17408752441406,Left
3261.195068359375,22946,1,1742.0,3835.0,1773.0,1750.0,1721.0,1751.0,1755.0,1750.0,3.398498058319092,17.169658660888672,125.17408752441406,Left
3263.195068359375,22946,1,1787.0,3829.0,1757.0,1747.0,1823.0,1769.0,1749.0,1747.0,3.398498058319092,17.169658660888672,125.17408752441406,Left
3265.195068359375,22946,1,1756.0,3663.0,1652.0,1757.0,1619.0,1712.0,1757.0,1747.0,3.398498058319092,17.169658660888672,125.17408752441406,Left
3267.454833984375,22947,1,1695.0,652.0,1745.0,1756.0,1885.0,1687.0,1761.0,1741.0,3.398498058319092,17.169658660888672,125.17408752441406,Left
3269.454833984375,22947,1,1775.0,0.0,1701.0,1770.0,1843.0,1773.0,1763.0,1749.0,3.398498058319092,17.169658660888672,125.17408752441406,Left
3271.454833984375,22947,1,1762.0,0.0,2026.0,1769.0,1739.0,1747.0,1767.0,1753.0,3.398498058319092,17.169658660888672,125.17408752441406,Left
3273.454833984375,22947,1,1779.0,0.0,1689.0,1765.0,1683.0,1757.0,1751.0,1749.0,3.398498058319092,17.169658660888672,125.17408752441406,Left
3275.454833984375,22947,1,1753.0,135.0,1897.0,1757.0,1709.0,1715.0,1753.0,1751.0,3.398498058319092,17.169658660888672,125.17408752441406,Left
3280.619873046875,22948,1,1803.0,3731.0,1679.0,1768.0,1781.0,1723.0,1771.0,1739.0,3.398498058319092,17.169658660888672,125.17408752441406,Left
3282.619873046875,22948,1,1751.0,3835.0,1869.0,1753.0,1822.0,1591.0,1739.0,1752.0,3.398498058319092,17.169658660888672,125.17408752441406,Left
3284.619873046875,22948,1,1695.0,3847.0,1619.0,1746.0,1812.0,1709.0,1743.0,1750.0,3.513129472732544,17.140134811401367,125.1967544555664,Left
3286.619873046875,22948,1,1781.0,3836.0,1688.0,1724.0,1701.0,1711.0,1759.0,1749.0,3.513129472732544,17.140134811401367,125.1967544555664,Left
3288.619873046875,22948,1,1787.0,3836.0,1879.0,1736.0,1619.0,1906.0,1755.0,1749.0,3.513129472732544,17.140134811401367,125.1967544555664,Left
3287.930908203125,22949,1,1743.0,757.0,1845.0,1759.0,1708.0,1773.0,1775.0,1739.0,3.513129472732544,17.140134811401367,125.1967544555664,Left
3289.930908203125,22949,1,1695.0,0.0,1775.0,1765.0,1836.0,1755.0,1759.0,1751.0,3.513129472732544,17.140134811401367,125.1967544555664,Left
3291.930908203125,22949,1,1765.0,0.0,1709.0,1763.0,1783.0,1766.0,1756.0,1748.0,3.513129472732544,17.140134811401367,125.1967544555664,Left
3293.930908203125,22949,1,1768.0,0.0,1727.0,1767.0,1746.0,1706.0,1755.0,1749.0,3.513129472732544,17.140134811401367,125.1967544555664,Left
3295.930908203125,22949,1,1813.0,0.0,1699.0,1765.0,1739.0,1605.0,1756.0,1751.0,3.513129472732544,17.140134811401367,125.1967544555664,Left
3298.10498046875,22950,1,1781.0,3543.0,1799.0,1721.0,1715.0,1747.0,1743.0,1735.0,3.513129472732544,17.140134811401367,125.1967544555664,Left
3300.10498046875,22950,1,1784.0,3838.0,1735.0,1763.0,1755.0,2025.0,1759.0,1751.0,3.513129472732544,17.140134811401367,125.1967544555664,Left
3302.10498046875,22950,1,1735.0,3847.0,1725.0,1783.0,1753.0,1693.0,1775.0,1748.0,3.513129472732544,17.140134811401367,125.1967544555664,Left
3304.10498046875,22950,1,1655.0,3845.0,1464.0,1772.0,1763.0,1769.0,1763.0,1751.0,3.513129472732544,17.140134811401367,125.1967544555664,Left
3306.10498046875,22950,1,1716.0,3839.0,2385.0,1766.0,1767.0,1932.0,1765.0,1749.0,3.513129472732544,17.140134811401367,125.1967544555664,Left
3307.716064453125,22951,1,1789.0,745.0,1694.0,1763.0,1717.0,1673.0,1778.0,1741.0,3.513129472732544,17.140134811401367,125.1967544555664,Left
3309.716064453125,22951,1,1771.0,0.0,1847.0,1763.0,1741.0,1951.0,1769.0,1749.0,3.513129472732544,17.140134811401367,125.1967544555664,Left
3311.716064453125,22951,1,1788.0,0.0,1647.0,1769.0,1829.0,1752.0,1749.0,1749.0,3.513129472732544,17.140134811401367,125.1967544555664,Left
3313.716064453125,22951,1,1707.0,0.0,1747.0,1737.0,1671.0,1611.0,1739.0,1747.0,3.513129472732544,17.140134811401367,125.1967544555664,Left
3315.716064453125,22951,1,1773.0,0.0,1668.0,1738.0,1692.0,1745.0,1743.0,1751.0,3.513129472732544,17.140134811401367,125.1967544555664,Left
3316.02880859375,22952,1,1752.0,2857.0,1838.0,1771.0,1852.0,1787.0,1771.0,1738.0,3.513129472732544,17.140134811401367,125.1967544555664,Left
3318.02880859375,22952,1,1791.0,3835.0,1771.0,1773.0,1735.0,1798.0,1767.0,1753.0,3.513129472732544,17.140134811401367,125.1967544555664,Left
3320.02880859375,22952,1,1779.0,3833.0,1655.0,1751.0,1709.0,1685.0,1742.0,1751.0,3.513129472732544,17.140134811401367,125.1967544555664,Left
3322.02880859375,22952,1,1751.0,3839.0,1687.0,1712.0,1723.0,1786.0,1753.0,1749.0,3.513129472732544,17.140134811401367,125.1967544555664,Left
3324.02880859375,22952,1,1769.0,3628.0,1595.0,1758.0,1801.0,1635.0,1758.0,1750.0,3.513129472732544,17.140134811401367,125.1967544555664,Left
3325.950927734375,22953,1,1742.0,562.0,1699.0,1757.0,1775.0,1861.0,1766.0,1749.0,3.513129472732544,17.140134811401367,125.1967544555664,Left
3327.950927734375,22953,1,1781.0,0.0,1949.0,1774.0,1752.0,1816.0,1774.0,1749.0,3.513129472732544,17.140134811401367,125.1967544555664,Left
3329.950927734375,22953,1,1691.0,0.0,1811.0,1770.0,1757.0,1745.0,1765.0,1747.0,3.513129472732544,17.140134811401367,125.1967544555664,Left
3331.950927734375,22953,1,1767.0,0.0,1761.0,1751.0,1719.0,1823.0,1755.0,1749.0,3.513129472732544,17.140134811401367,125.1967544555664,Left
3333.950927734375,22953,1,1785.0,0.0,1799.0,1726.0,1741.0,1647.0,1727.0,1751.0,3.513129472732544,17.140134811401367,125.1967544555664,Left
3335.778076171875,22954,1,1786.0,3352.0,1652.0,1774.0,1595.0,1762.0,1753.0,1750.0,3.513129472732544,17.140134811401367,125.1967544555664,Left
3337.778076171875,22954,1,1761.0,3835.0,1693.0,1780.0,1851.0,1687.0,1773.0,1749.0,3.513129472732544,17.140134811401367,125.1967544555664,Left
3339.778076171875,22954,1,1699.0,3837.0,1890.0,1763.0,1868.0,1741.0,1769.0,1748.0,3.513129472732544,17.140134811401367,125.1967544555664,Left
3341.778076171875,22954,1,1772.0,3836.0,1706.0,1750.0,1875.0,1877.0,1757.0,1749.0,3.513129472732544,17.140134811401367,125.1967544555664,Left
3343.778076171875,22954,1,1791.0,3837.0,1847.0,1753.0,1675.0,1525.0,1741.0,1748.0,3.0519280433654785,17.150819778442383,125.0770492553711,Left
3345.457763671875,22955,1,1711.0,587.0,1815.0,1753.0,1738.0,2117.0,1785.0,1751.0,3.0519280433654785,17.150819778442383,125.0770492553711,Left
3347.457763671875,22955,1,1765.0,0.0,1747.0,1748.0,1663.0,1749.0,1756.0,1751.0,3.0519280433654785,17.150819778442383,125.0770492553711,Left
3349.457763671875,22955,1,1725.0,0.0,1689.0,1752.0,1845.0,1699.0,1764.0,1749.0,3.0519280433654785,17.150819778442383,125.0770492553711,Left
3351.457763671875,22955,1,1781.0,0.0,1693.0,1781.0,1757.0,1765.0,1802.0,1749.0,3.0519280433654785,17.150819778442383,125.0770492553711,Left
3353.457763671875,22955,1,1771.0,0.0,1721.0,1767.0,1727.0,1749.0,1757.0,1753.0,3.0519280433654785,17.150819778442383,125.0770492553711,Left
3359.05712890625,22956,1,1759.0,3002.0,1765.0,1750.0,1723.0,1735.0,1763.0,1749.0,3.0519280433654785,17.150819778442383,125.0770492553711,Left
3361.05712890625,22956,1,1790.0,3832.0,1693.0,1758.0,1510.0,1715.0,1749.0,1747.0,3.0519280433654785,17.150819778442383,125.0770492553711,Left
3363.05712890625,22956,1,1719.0,3832.0,1788.0,1753.0,1639.0,1725.0,1733.0,1750.0,3.0519280433654785,17.150819778442383,125.0770492553711,Left
3365.05712890625,22956,1,1721.0,3848.0,1782.0,1763.0,2279.0,1751.0,1747.0,1751.0,3.0519280433654785,17.150819778442383,125.0770492553711,Left
3367.05712890625,22956,1,1804.0,3837.0,1723.0,1768.0,1727.0,1635.0,1759.0,1751.0,3.0519280433654785,17.150819778442383,125.0770492553711,Left
3365.73583984375,22957,1,1739.0,686.0,1783.0,1762.0,1671.0,1804.0,1771.0,1751.0,3.0519280433654785,17.150819778442383,125.0770492553711,Left
3367.73583984375,22957,1,1737.0,0.0,1809.0,1733.0,1678.0,1779.0,1753.0,1752.0,3.0519280433654785,17.150819778442383,125.0770492553711,Left
3369.73583984375,22957,1,1791.0,0.0,1753.0,1747.0,1721.0,1673.0,1752.0,1749.0,3.0519280433654785,17.150819778442383,125.0770492553711,Left
3371.73583984375,22957,1,1767.0,0.0,1771.0,1759.0,1699.0,1803.0,1775.0,1749.0,3.0519280433654785,17.150819778442383,125.0770492553711,Left
3373.73583984375,22957,1,1742.0,0.0,1663.0,1763.0,1709.0,1773.0,1763.0,1750.0,3.0519280433654785,17.150819778442383,125.0770492553711,Left
3375.7958984375,22958,1,1767.0,2228.0,1788.0,1759.0,1797.0,1816.0,1757.0,1751.0,3.0519280433654785,17.150819778442383,125.0770492553711,Left
3377.7958984375,22958,1,1719.0,3836.0,1756.0,1787.0,1815.0,1722.0,1775.0,1752.0,3.0519280433654785,17.150819778442383,125.0770492553711,Left
3379.7958984375,22958,1,1727.0,3835.0,1861.0,1751.0,1736.0,1749.0,1752.0,1751.0,3.0519280433654785,17.150819778442383,125.0770492553711,Left
3381.7958984375,22958,1,1757.0,3835.0,1775.0,1801.0,1845.0,1759.0,1771.0,1747.0,3.0519280433654785,17.150819778442383,125.0770492553711,Left
3383.7958984375,22958,1,1726.0,3849.0,1775.0,1779.0,1725.0,1771.0,1783.0,1752.0,3.0519280433654785,17.150819778442383,125.0770492553711,Left
3385.7080078125,22959,1,1767.0,937.0,1719.0,1743.0,1707.0,1741.0,1758.0,1752.0,3.0519280433654785,17.150819778442383,125.0770492553711,Left
3387.7080078125,22959,1,1783.0,0.0,1604.0,1751.0,1741.0,1720.0,1759.0,1749.0,3.0519280433654785,17.150819778442383,125.0770492553711,Left
3389.7080078125,22959,1,1767.0,0.0,1867.0,1754.0,1733.0,1741.0,1753.0,1749.0,3.0519280433654785,17.150819778442383,125.0770492553711,Left
3391.7080078125,22959,1,1759.0,0.0,1895.0,1747.0,1626.0,1740.0,1747.0,1749.0,3.0519280433654785,17.150819778442383,125.0770492553711,Left
3393.7080078125,22959,1,1743.0,411.0,1575.0,1762.0,1893.0,1823.0,1753.0,1749.0,3.0519280433654785,17.150819778442383,125.0770492553711,Left
3395.97705078125,22960,1,1775.0,3833.0,1695.0,1747.0,1779.0,1785.0,1755.0,1749.0,3.0519280433654785,17.150819778442383,125.0770492553711,Left
3397.97705078125,22960,1,1769.0,3848.0,1758.0,1755.0,1821.0,1593.0,1770.0,1749.0,3.0519280433654785,17.150819778442383,125.0770492553711,Left
3399.97705078125,22960,1,1773.0,3832.0,1723.0,1735.0,1743.0,1758.0,1756.0,1752.0,3.0519280433654785,17.150819778442383,125.0770492553711,Left
3401.97705078125,22960,1,1756.0,3835.0,1803.0,1757.0,1746.0,1727.0,1755.0,1751.0,3.0519280433654785,17.150819778442383,125.0770492553711,Left
3403.97705078125,22960,1,1765.0,3833.0,1755.0,1766.0,1719.0,1693.0,1763.0,1747.0,3.0519280433654785,17.150819778442383,125.0770492553711,Left
3406.529052734375,22961,1,1789.0,1277.0,1706.0,1768.0,1755.0,1829.0,1781.0,1751.0,3.0519280433654785,17.150819778442383,125.0770492553711,Left
3408.529052734375,22961,1,1695.0,0.0,1493.0,1766.0,1773.0,1553.0,1749.0,1747.0,3.0519280433654785,17.150819778442383,125.0770492553711,Left
3410.529052734375,22961,1,1743.0,0.0,1945.0,1763.0,1758.0,1846.0,1753.0,1753.0,2.929281711578369,17.197601318359375,124.77173614501953,Left
3412.529052734375,22961,1,1755.0,0.0,1849.0,1759.0,1763.0,1715.0,1749.0,1749.0,2.929281711578369,17.197601318359375,124.77173614501953,Left
3414.529052734375,22961,1,1799.0,0.0,1941.0,1767.0,1755.0,1720.0,1769.0,1749.0,2.929281711578369,17.197601318359375,124.77173614501953,Left
3417.90283203125,22962,1,1758.0,2698.0,1643.0,1743.0,1641.0,1703.0,1769.0,1747.0,2.929281711578369,17.197601318359375,124.77173614501953,Left
3419.90283203125,22962,1,1723.0,3834.0,1723.0,1764.0,1759.0,1784.0,1751.0,1748.0,2.929281711578369,17.197601318359375,124.77173614501953,Left
3421.90283203125,22962,1,1749.0,3831.0,1695.0,1753.0,1753.0,1740.0,1749.0,1751.0,2.929281711578369,17.197601318359375,124.77173614501953,Left
3423.90283203125,22962,1,1737.0,3837.0,1779.0,1753.0,1750.0,1754.0,1757.0,1749.0,2.929281711578369,17.197601318359375,124.77173614501953,Left
3425.90283203125,22962,1,1764.0,3151.0,1723.0,1755.0,1755.0,1719.0,1759.0,1751.0,2.929281711578369,17.197601318359375,124.77173614501953,Left
3428.378173828125,22963,1,1763.0,209.0,1725.0,1751.0,1725.0,1721.0,1747.0,1738.0,2.929281711578369,17.197601318359375,124.77173614501953,Left
3430.378173828125,22963,1,1798.0,0.0,1719.0,1769.0,1702.0,1763.0,1764.0,1749.0,2.929281711578369,17.197601318359375,124.77173614501953,Left
3432.378173828125,22963,1,1789.0,0.0,1844.0,1764.0,1861.0,1579.0,1767.0,1750.0,2.929281711578369,17.197601318359375,124.77173614501953,Left
3434.378173828125,22963,1,1771.0,0.0,1653.0,1782.0,1748.0,1695.0,1751.0,1752.0,2.929281711578369,17.197601318359375,124.77173614501953,Left
3436.378173828125,22963,1,1709.0,0.0,1661.0,1756.0,1727.0,1823.0,1758.0,1749.0,2.929281711578369,17.197601318359375,124.77173614501953,Left
3436.2529296875,22964,1,1769.0,2764.0,1816.0,1749.0,1721.0,1902.0,1749.0,1747.0,2.929281711578369,17.197601318359375,124.77173614501953,Left
3438.2529296875,22964,1,1754.0,3838.0,1946.0,1747.0,1736.0,1799.0,1749.0,1752.0,2.929281711578369,17.197601318359375,124.77173614501953,Left
3440.2529296875,22964,1,1707.0,3832.0,1705.0,1739.0,1807.0,1687.0,1755.0,1750.0,2.929281711578369,17.197601318359375,124.77173614501953,Left
3442.2529296875,22964,1,1823.0,3833.0,1747.0,1753.0,1780.0,1751.0,1765.0,1752.0,2.929281711578369,17.197601318359375,124.77173614501953,Left
3444.2529296875,22964,1,1761.0,3837.0,1738.0,1757.0,1701.0,1735.0,1757.0,1751.0,2.929281711578369,17.197601318359375,124.77173614501953,Left
3447.545166015625,22965,1,1734.0,1273.0,1800.0,1779.0,1804.0,1748.0,1783.0,1747.0,2.929281711578369,17.197601318359375,124.77173614501953,Left
3449.545166015625,22965,1,1737.0,0.0,1702.0,1757.0,1752.0,1715.0,1754.0,1749.0,2.929281711578369,17.197601318359375,124.77173614501953,Left
3451.545166015625,22965,1,1767.0,0.0,1663.0,1756.0,1757.0,1753.0,1781.0,1755.0,2.929281711578369,17.197601318359375,124.77173614501953,Left
3453.545166015625,22965,1,1769.0,0.0,1815.0,1766.0,1725.0,1737.0,1763.0,1751.0,2.929281711578369,17.197601318359375,124.77173614501953,Left
3455.545166015625,22965,1,1735.0,0.0,1801.0,1757.0,1671.0,1877.0,1759.0,1753.0,2.929281711578369,17.197601318359375,124.77173614501953,Left
3455.55810546875,22966,1,1737.0,3229.0,1727.0,1753.0,1671.0,1654.0,1759.0,1751.0,2.929281711578369,17.197601318359375,124.77173614501953,Left
3457.55810546875,22966,1,1833.0,3839.0,1683.0,1783.0,2039.0,1775.0,1769.0,1749.0,2.929281711578369,17.197601318359375,124.77173614501953,Left
3459.55810546875,22966,1,1767.0,3836.0,1574.0,1733.0,1719.0,1647.0,1727.0,1749.0,2.929281711578369,17.197601318359375,124.77173614501953,Left
3461.55810546875,22966,1,1739.0,3835.0,1800.0,1751.0,1782.0,1775.0,1755.0,1750.0,2.929281711578369,17.197601318359375,124.77173614501953,Left
3463.55810546875,22966,1,1755.0,3831.0,2036.0,1785.0,1733.0,1964.0,1775.0,1751.0,2.929281711578369,17.197601318359375,124.77173614501953,Left
3465.718017578125,22967,1,1683.0,1209.0,1679.0,1767.0,1679.0,1639.0,1779.0,1753.0,2.929281711578369,17.197601318359375,124.77173614501953,Left
3467.718017578125,22967,1,1739.0,0.0,1722.0,1755.0,1717.0,1789.0,1771.0,1749.0,2.929281711578369,17.197601318359375,124.77173614501953,Left
3469.718017578125,22967,1,1785.0,0.0,1827.0,1765.0,1891.0,1726.0,1764.0,1753.0,2.929281711578369,17.197601318359375,124.77173614501953,Left
3471.718017578125,22967,1,1789.0,0.0,1737.0,1757.0,1771.0,1645.0,1757.0,1753.0,2.929281711578369,17.197601318359375,124.77173614501953,Left
3473.718017578125,22967,1,1800.0,0.0,1725.0,1739.0,1739.0,1756.0,1749.0,1748.0,3.374906063079834,17.31407928466797,124.61091613769531,Left
3479.740966796875,22968,1,1696.0,3307.0,1772.0,1743.0,1736.0,1746.0,1742.0,1753.0,3.374906063079834,17.31407928466797,124.61091613769531,Left
3481.740966796875,22968,1,1788.0,3835.0,1707.0,1751.0,1779.0,1734.0,1756.0,1750.0,3.374906063079834,17.31407928466797,124.61091613769531,Left
3483.740966796875,22968,1,1771.0,3829.0,1845.0,1767.0,1768.0,1733.0,1756.0,1747.0,3.374906063079834,17.31407928466797,124.61091613769531,Left
3485.740966796875,22968,1,1727.0,3833.0,1608.0,1780.0,1755.0,1687.0,1769.0,1747.0,3.374906063079834,17.31407928466797,124.61091613769531,Left
3487.740966796875,22968,1,1785.0,3837.0,1811.0,1764.0,1637.0,1755.0,1764.0,1749.0,3.374906063079834,17.31407928466797,124.61091613769531,Left
3485.682861328125,22969,1,1654.0,1142.0,1889.0,1750.0,1814.0,2101.0,1763.0,1741.0,3.374906063079834,17.31407928466797,124.61091613769531,Left
3487.682861328125,22969,1,1785.0,0.0,1802.0,1770.0,1766.0,1771.0,1787.0,1752.0,3.374906063079834,17.31407928466797,124.61091613769531,Left
3489.682861328125,22969,1,1769.0,0.0,1641.0,1767.0,1783.0,1684.0,1763.0,1752.0,3.374906063079834,17.31407928466797,124.61091613769531,Left
3491.682861328125,22969,1,1771.0,0.0,1827.0,1757.0,1737.0,1683.0,1755.0,1751.0,3.374906063079834,17.31407928466797,124.61091613769531,Left
3493.682861328125,22969,1,1819.0,0.0,1753.0,1749.0,1621.0,1721.0,1751.0,1750.0,3.374906063079834,17.31407928466797,124.61091613769531,Left
3495.552001953125,22970,1,1675.0,2839.0,1779.0,1755.0,1849.0,1820.0,1755.0,1749.0,3.374906063079834,17.31407928466797,124.61091613769531,Left
3497.552001953125,22970,1,1695.0,3847.0,1746.0,1755.0,1898.0,1735.0,1751.0,1748.0,3.374906063079834,17.31407928466797,124.61091613769531,Left
3499.552001953125,22970,1,1852.0,3835.0,1779.0,1763.0,1757.0,1749.0,1759.0,1751.0,3.374906063079834,17.31407928466797,124.61091613769531,Left
3501.552001953125,22970,1,1771.0,3837.0,1675.0,1721.0,1727.0,1737.0,1752.0,1753.0,3.374906063079834,17.31407928466797,124.61091613769531,Left
3503.552001953125,22970,1,1703.0,3835.0,1823.0,1767.0,1767.0,1743.0,1774.0,1751.0,3.374906063079834,17.31407928466797,124.61091613769531,Left
3506.28173828125,22971,1,1735.0,1133.0,1523.0,1767.0,1736.0,1852.0,1771.0,1749.0,3.374906063079834,17.31407928466797,124.61091613769531,Left
3508.28173828125,22971,1,1788.0,0.0,1941.0,1747.0,1755.0,1799.0,1755.0,1749.0,3.374906063079834,17.31407928466797,124.61091613769531,Left
3510.28173828125,22971,1,1775.0,0.0,2100.0,1739.0,1692.0,1652.0,1747.0,1748.0,3.374906063079834,17.31407928466797,124.61091613769531,Left
3512.28173828125,22971,1,1719.0,0.0,1753.0,1763.0,1716.0,1749.0,1765.0,1751.0,3.374906063079834,17.31407928466797,124.61091613769531,Left
3514.28173828125,22971,1,1769.0,0.0,1752.0,1757.0,1695.0,1784.0,1753.0,1749.0,3.374906063079834,17.31407928466797,124.61091613769531,Left
3519.001953125,22972,1,1762.0,2285.0,1737.0,1751.0,1749.0,1734.0,1727.0,1749.0,3.374906063079834,17.31407928466797,124.61091613769531,Left
3521.001953125,22972,1,1763.0,3833.0,1733.0,1771.0,1828.0,1714.0,1780.0,1750.0,3.374906063079834,17.31407928466797,124.61091613769531,Left
3523.001953125,22972,1,1691.0,3833.0,1708.0,1781.0,1809.0,1815.0,1780.0,1749.0,3.374906063079834,17.31407928466797,124.61091613769531,Left
3525.001953125,22972,1,1853.0,3836.0,1827.0,1763.0,1686.0,1861.0,1771.0,1749.0,3.374906063079834,17.31407928466797,124.61091613769531,Left
3527.001953125,22972,1,1743.0,2315.0,1741.0,1765.0,1940.0,1647.0,1773.0,1751.0,3.374906063079834,17.31407928466797,124.61091613769531,Left
3525.575927734375,22973,1,1771.0,0.0,1715.0,1739.0,1718.0,1755.0,1757.0,1749.0,3.374906063079834,17.31407928466797,124.61091613769531,Left
3527.575927734375,22973,1,1723.0,0.0,1747.0,1735.0,1706.0,1823.0,1725.0,1750.0,3.374906063079834,17.31407928466797,124.61091613769531,Left
3529.575927734375,22973,1,1755.0,0.0,1761.0,1755.0,1705.0,1788.0,1764.0,1747.0,3.374906063079834,17.31407928466797,124.61091613769531,Left
3531.575927734375,22973,1,1781.0,0.0,1652.0,1764.0,1725.0,1655.0,1770.0,1750.0,3.374906063079834,17.31407928466797,124.61091613769531,Left
3533.575927734375,22973,1,1761.0,0.0,1814.0,1756.0,1742.0,1746.0,1767.0,1751.0,3.374906063079834,17.31407928466797,124.61091613769531,Left
3535.717041015625,22974,1,1767.0,1462.0,1860.0,1771.0,1737.0,1799.0,1769.0,1751.0,3.374906063079834,17.31407928466797,124.61091613769531,Left
3537.717041015625,22974,1,1757.0,3833.0,1785.0,1764.0,1756.0,1660.0,1766.0,1749.0,3.7245705127716064,17.405414581298828,124.5240478515625,Left
3539.717041015625,22974,1,1743.0,3835.0,1661.0,1753.0,1772.0,1785.0,1758.0,1752.0,3.7245705127716064,17.405414581298828,124.5240478515625,Left
3541.717041015625,22974,1,1755.0,3833.0,1726.0,1751.0,1781.0,1851.0,1761.0,1754.0,3.7245705127716064,17.405414581298828,124.5240478515625,Left
3543.717041015625,22974,1,1773.0,3835.0,1709.0,1753.0,1755.0,1643.0,1752.0,1755.0,3.7245705127716064,17.405414581298828,124.5240478515625,Left
3547.449951171875,22975,1,1751.0,1053.0,1631.0,1752.0,1734.0,1725.0,1765.0,1745.0,3.7245705127716064,17.405414581298828,124.5240478515625,Left
3549.449951171875,22975,1,1717.0,0.0,1939.0,1746.0,1717.0,1741.0,1758.0,1749.0,3.7245705127716064,17.405414581298828,124.5240478515625,Left
3551.449951171875,22975,1,1757.0,0.0,1895.0,1776.0,1722.0,1862.0,1781.0,1751.0,3.7245705127716064,17.405414581298828,124.5240478515625,Left
3553.449951171875,22975,1,1783.0,0.0,1764.0,1757.0,1765.0,1727.0,1755.0,1751.0,3.7245705127716064,17.405414581298828,124.5240478515625,Left
3555.449951171875,22975,1,1711.0,77.0,1639.0,1756.0,1819.0,1713.0,1751.0,1747.0,3.7245705127716064,17.405414581298828,124.5240478515625,Left
3555.486083984375,22976,1,1779.0,3519.0,1747.0,1763.0,1746.0,1735.0,1801.0,1747.0,3.7245705127716064,17.405414581298828,124.5240478515625,Left
3557.486083984375,22976,1,1715.0,3833.0,1675.0,1764.0,1807.0,1766.0,1755.0,1748.0,3.7245705127716064,17.405414581298828,124.5240478515625,Left
3559.486083984375,22976,1,1871.0,3834.0,1720.0,1747.0,1779.0,1722.0,1752.0,1749.0,3.7245705127716064,17.405414581298828,124.5240478515625,Left
3561.486083984375,22976,1,1711.0,3833.0,1883.0,1737.0,1712.0,1869.0,1735.0,1751.0,3.7245705127716064,17.405414581298828,124.5240478515625,Left
3563.486083984375,22976,1,1725.0,3839.0,1709.0,1769.0,1768.0,1740.0,1775.0,1747.0,3.7245705127716064,17.405414581298828,124.5240478515625,Left
3565.8427734375,22977,1,1739.0,1915.0,1806.0,1757.0,1673.0,1723.0,1764.0,1741.0,3.7245705127716064,17.405414581298828,124.5240478515625,Left
3567.8427734375,22977,1,1755.0,0.0,1755.0,1769.0,1903.0,1741.0,1768.0,1749.0,3.7245705127716064,17.405414581298828,124.5240478515625,Left
3569.8427734375,22977,1,1710.0,0.0,1727.0,1781.0,1757.0,1823.0,1772.0,1750.0,3.7245705127716064,17.405414581298828,124.5240478515625,Left
3571.8427734375,22977,1,1749.0,0.0,1815.0,1758.0,1613.0,1689.0,1743.0,1754.0,3.7245705127716064,17.405414581298828,124.5240478515625,Left
3573.8427734375,22977,1,1781.0,151.0,1743.0,1749.0,1848.0,1683.0,1753.0,1749.0,3.7245705127716064,17.405414581298828,124.5240478515625,Left
3575.572021484375,22978,1,1805.0,2927.0,1790.0,1750.0,1723.0,1719.0,1763.0,1748.0,3.7245705127716064,17.405414581298828,124.5240478515625,Left
3577.572021484375,22978,1,1775.0,3836.0,1861.0,1741.0,1741.0,1779.0,1747.0,1749.0,3.7245705127716064,17.405414581298828,124.5240478515625,Left
3579.572021484375,22978,1,1739.0,3832.0,1715.0,1749.0,1725.0,1783.0,1765.0,1749.0,3.7245705127716064,17.405414581298828,124.5240478515625,Left
3581.572021484375,22978,1,1703.0,3833.0,1751.0,1762.0,1693.0,1904.0,1769.0,1748.0,3.7245705127716064,17.405414581298828,124.5240478515625,Left
3583.572021484375,22978,1,1721.0,3836.0,1754.0,1759.0,1813.0,1727.0,1761.0,1750.0,3.7245705127716064,17.405414581298828,124.5240478515625,Left
3588.068115234375,22979,1,1785.0,699.0,1755.0,1763.0,1743.0,1733.0,1767.0,1748.0,3.7245705127716064,17.405414581298828,124.5240478515625,Left
3590.068115234375,22979,1,1782.0,0.0,1759.0,1751.0,1801.0,1707.0,1767.0,1749.0,3.7245705127716064,17.405414581298828,124.5240478515625,Left
3592.068115234375,22979,1,1755.0,0.0,1746.0,1749.0,1749.0,1873.0,1759.0,1747.0,3.7245705127716064,17.405414581298828,124.5240478515625,Left
3594.068115234375,22979,1,1757.0,0.0,1843.0,1769.0,1717.0,1755.0,1764.0,1749.0,3.7245705127716064,17.405414581298828,124.5240478515625,Left
3596.068115234375,22979,1,1739.0,0.0,1726.0,1773.0,1759.0,1703.0,1757.0,1750.0,3.7245705127716064,17.405414581298828,124.5240478515625,Left
3595.601806640625,22980,1,1783.0,2332.0,1805.0,1757.0,1748.0,1710.0,1737.0,1747.0,3.7245705127716064,17.405414581298828,124.5240478515625,Left
3597.601806640625,22980,1,1759.0,3838.0,1756.0,1769.0,1740.0,1814.0,1775.0,1749.0,3.7245705127716064,17.405414581298828,124.5240478515625,Left
3599.601806640625,22980,1,1765.0,3845.0,1757.0,1781.0,1801.0,1749.0,1781.0,1751.0,3.7245705127716064,17.405414581298828,124.5240478515625,Left
3601.601806640625,22980,1,1751.0,3839.0,1635.0,1757.0,1767.0,1709.0,1763.0,1748.0,3.7245705127716064,17.405414581298828,124.5240478515625,Left
3603.601806640625,22980,1,1755.0,3831.0,2069.0,1753.0,1737.0,1992.0,1758.0,1751.0,3.6822731494903564,17.547584533691406,124.40771484375,Left
3605.9140625,22981,1,1721.0,1801.0,1770.0,1745.0,1716.0,1717.0,1756.0,1753.0,3.6822731494903564,17.547584533691406,124.40771484375,Left
3607.9140625,22981,1,1745.0,41.0,1687.0,1752.0,1726.0,1723.0,1759.0,1751.0,3.6822731494903564,17.547584533691406,124.40771484375,Left
3609.9140625,22981,1,1775.0,0.0,1767.0,1755.0,1781.0,1801.0,1767.0,1751.0,3.6822731494903564,17.547584533691406,124.40771484375,Left
3611.9140625,22981,1,1758.0,0.0,1711.0,1743.0,1741.0,1619.0,1757.0,1749.0,3.6822731494903564,17.547584533691406,124.40771484375,Left
3613.9140625,22981,1,1783.0,524.0,1721.0,1757.0,1757.0,1779.0,1755.0,1750.0,3.6822731494903564,17.547584533691406,124.40771484375,Left
3620.774658203125,22982,1,1773.0,3836.0,1754.0,1757.0,1721.0,1694.0,1759.0,1749.0,3.6822731494903564,17.547584533691406,124.40771484375,Left
3622.774658203125,22982,1,1775.0,3835.0,1787.0,1753.0,1720.0,1741.0,1749.0,1749.0,3.6822731494903564,17.547584533691406,124.40771484375,Left
3624.774658203125,22982,1,1707.0,3833.0,1829.0,1763.0,1867.0,1769.0,1755.0,1750.0,3.6822731494903564,17.547584533691406,124.40771484375,Left
3626.774658203125,22982,1,1704.0,3837.0,1733.0,1720.0,1644.0,1692.0,1725.0,1751.0,3.6822731494903564,17.547584533691406,124.40771484375,Left
3628.774658203125,22982,1,1719.0,3848.0,1770.0,1765.0,1928.0,1791.0,1771.0,1749.0,3.6822731494903564,17.547584533691406,124.40771484375,Left
3626.192138671875,22983,1,1773.0,2321.0,1753.0,1783.0,1683.0,1742.0,1801.0,1740.0,3.6822731494903564,17.547584533691406,124.40771484375,Left
3628.192138671875,22983,1,1772.0,0.0,1789.0,1774.0,1719.0,1703.0,1783.0,1751.0,3.6822731494903564,17.547584533691406,124.40771484375,Left
3630.192138671875,22983,1,1865.0,0.0,1727.0,1749.0,1753.0,1789.0,1747.0,1751.0,3.6822731494903564,17.547584533691406,124.40771484375,Left
3632.192138671875,22983,1,1627.0,0.0,1724.0,1752.0,1868.0,1799.0,1771.0,1747.0,3.6822731494903564,17.547584533691406,124.40771484375,Left
3634.192138671875,22983,1,1811.0,0.0,1691.0,1765.0,1855.0,1691.0,1766.0,1751.0,3.6822731494903564,17.547584533691406,124.40771484375,Left
3635.92919921875,22984,1,1820.0,1927.0,1831.0,1742.0,1663.0,1761.0,1746.0,1753.0,3.6822731494903564,17.547584533691406,124.40771484375,Left
3637.92919921875,22984,1,1720.0,3839.0,1837.0,1757.0,1719.0,1781.0,1747.0,1749.0,3.6822731494903564,17.547584533691406,124.40771484375,Left
3639.92919921875,22984,1,1749.0,3837.0,1926.0,1755.0,1707.0,1861.0,1748.0,1749.0,3.6822731494903564,17.547584533691406,124.40771484375,Left
3641.92919921875,22984,1,1797.0,3835.0,1717.0,1748.0,1728.0,1773.0,1746.0,1747.0,3.6822731494903564,17.547584533691406,124.40771484375,Left
3643.92919921875,22984,1,1748.0,2509.0,1712.0,1765.0,1753.0,1645.0,1765.0,1753.0,3.6822731494903564,17.547584533691406,124.40771484375,Left
3646.144775390625,22985,1,1749.0,71.0,1781.0,1765.0,1747.0,1591.0,1773.0,1749.0,3.6822731494903564,17.547584533691406,124.40771484375,Left
3648.144775390625,22985,1,1762.0,0.0,1679.0,1764.0,1738.0,1815.0,1781.0,1748.0,3.6822731494903564,17.547584533691406,124.40771484375,Left
3650.144775390625,22985,1,1784.0,0.0,1657.0,1753.0,1755.0,2007.0,1757.0,1750.0,3.6822731494903564,17.547584533691406,124.40771484375,Left
3652.144775390625,22985,1,1768.0,0.0,1851.0,1742.0,1753.0,1747.0,1748.0,1749.0,3.6822731494903564,17.547584533691406,124.40771484375,Left
3654.144775390625,22985,1,1733.0,0.0,1751.0,1764.0,1755.0,1734.0,1763.0,1748.0,3.6822731494903564,17.547584533691406,124.40771484375,Left
3655.842041015625,22986,1,1746.0,1467.0,1783.0,1769.0,1749.0,1803.0,1773.0,1747.0,3.6822731494903564,17.547584533691406,124.40771484375,Left
3657.842041015625,22986,1,1755.0,3831.0,1768.0,1759.0,1767.0,1630.0,1769.0,1747.0,3.6822731494903564,17.547584533691406,124.40771484375,Left
3659.842041015625,22986,1,1797.0,3836.0,1669.0,1757.0,1706.0,1853.0,1753.0,1749.0,3.6822731494903564,17.547584533691406,124.40771484375,Left
3661.842041015625,22986,1,1735.0,3845.0,1671.0,1753.0,1757.0,1803.0,1747.0,1749.0,3.6822731494903564,17.547584533691406,124.40771484375,Left
3663.842041015625,22986,1,1775.0,3837.0,1759.0,1755.0,1802.0,1645.0,1757.0,1749.0,3.6822731494903564,17.547584533691406,124.40771484375,Left
3665.9970703125,22987,1,1765.0,808.0,1771.0,1757.0,1753.0,1805.0,1765.0,1749.0,3.6822731494903564,17.547584533691406,124.40771484375,Left
3667.9970703125,22987,1,1725.0,0.0,1743.0,1749.0,1748.0,1719.0,1743.0,1751.0,3.7420830726623535,17.516366958618164,124.25764465332031,Left
3669.9970703125,22987,1,1724.0,0.0,1742.0,1725.0,1705.0,1740.0,1768.0,1750.0,3.7420830726623535,17.516366958618164,124.25764465332031,Left
3671.9970703125,22987,1,1819.0,0.0,1757.0,1767.0,1706.0,1753.0,1762.0,1747.0,3.7420830726623535,17.516366958618164,124.25764465332031,Left
3673.9970703125,22987,1,1719.0,0.0,1765.0,1765.0,1879.0,1733.0,1753.0,1750.0,3.7420830726623535,17.516366958618164,124.25764465332031,Left
3675.3740234375,22988,1,1749.0,2165.0,1829.0,1755.0,1747.0,1756.0,1763.0,1750.0,3.7420830726623535,17.516366958618164,124.25764465332031,Left
3677.3740234375,22988,1,1774.0,3836.0,1678.0,1755.0,1696.0,1711.0,1771.0,1752.0,3.7420830726623535,17.516366958618164,124.25764465332031,Left
3679.3740234375,22988,1,1774.0,3831.0,1785.0,1771.0,1759.0,1875.0,1753.0,1751.0,3.7420830726623535,17.516366958618164,124.25764465332031,Left
3681.3740234375,22988,1,1773.0,3833.0,1725.0,1769.0,1758.0,1707.0,1750.0,1747.0,3.7420830726623535,17.516366958618164,124.25764465332031,Left
3683.3740234375,22988,1,1756.0,3323.0,1701.0,1768.0,1676.0,1737.0,1765.0,1748.0,3.7420830726623535,17.516366958618164,124.25764465332031,Left
3685.598876953125,22989,1,1741.0,332.0,1928.0,1752.0,1785.0,1765.0,1772.0,1749.0,3.7420830726623535,17.516366958618164,124.25764465332031,Left
3687.598876953125,22989,1,1752.0,0.0,1772.0,1755.0,1789.0,1742.0,1765.0,1749.0,3.7420830726623535,17.516366958618164,124.25764465332031,Left
3689.598876953125,22989,1,1769.0,0.0,1687.0,1758.0,1675.0,1727.0,1764.0,1751.0,3.7420830726623535,17.516366958618164,124.25764465332031,Left
3691.598876953125,22989,1,1735.0,0.0,1835.0,1755.0,1978.0,1757.0,1758.0,1750.0,3.7420830726623535,17.516366958618164,124.25764465332031,Left
3693.598876953125,22989,1,1799.0,0.0,1763.0,1742.0,1747.0,1743.0,1745.0,1749.0,3.7420830726623535,17.516366958618164,124.25764465332031,Left
3696.197998046875,22990,1,1709.0,1195.0,1641.0,1727.0,1686.0,1684.0,1743.0,1750.0,3.7420830726623535,17.516366958618164,124.25764465332031,Left
3698.197998046875,22990,1,1763.0,3833.0,1785.0,1751.0,1725.0,1661.0,1756.0,1749.0,3.7420830726623535,17.516366958618164,124.25764465332031,Left
3700.197998046875,22990,1,1791.0,3833.0,1875.0,1757.0,1767.0,1845.0,1755.0,1748.0,3.7420830726623535,17.516366958618164,124.25764465332031,Left
3702.197998046875,22990,1,1740.0,3839.0,1703.0,1757.0,1721.0,1766.0,1762.0,1752.0,3.7420830726623535,17.516366958618164,124.25764465332031,Left
3704.197998046875,22990,1,1757.0,3839.0,1750.0,1770.0,1707.0,1787.0,1771.0,1749.0,3.7420830726623535,17.516366958618164,124.25764465332031,Left
3707.517822265625,22991,1,1749.0,1511.0,1692.0,1755.0,1828.0,1800.0,1767.0,1752.0,3.7420830726623535,17.516366958618164,124.25764465332031,Left
3709.517822265625,22991,1,1757.0,0.0,1880.0,1765.0,1757.0,1645.0,1769.0,1751.0,3.7420830726623535,17.516366958618164,124.25764465332031,Left
