Timestamp_ms,Packet_Number,Trial_ID,Ch1,Ch2,Ch3,Ch4,Ch5,Ch6,Ch7,Ch8,Ch9,Ch10,Ch11,Label
3287.569580078125,5126,1,1769.0,1769.0,2009.0,1736.0,1757.0,1803.0,1757.0,1752.0,103.18438720703125,-22.435239791870117,-73.3108139038086,Left
3289.569580078125,5126,1,1755.0,1765.0,1819.0,1647.0,1741.0,2490.0,1757.0,1741.0,103.18438720703125,-22.435239791870117,-73.3108139038086,Left
3291.569580078125,5126,1,1753.0,1755.0,1829.0,1675.0,1747.0,2477.0,1759.0,1726.0,103.18438720703125,-22.435239791870117,-73.3108139038086,Left
3293.569580078125,5126,1,1751.0,1741.0,1661.0,1755.0,1739.0,2105.0,1757.0,1727.0,103.18438720703125,-22.435239791870117,-73.3108139038086,Left
3295.569580078125,5126,1,1746.0,1748.0,1741.0,1863.0,1739.0,1417.0,1756.0,1738.0,103.18438720703125,-22.435239791870117,-73.3108139038086,Left
3297.491455078125,5127,1,1755.0,1743.0,1622.0,1849.0,1747.0,1103.0,1758.0,1739.0,103.18438720703125,-22.435239791870117,-73.3108139038086,Left
3299.491455078125,5127,1,1755.0,1757.0,1663.0,1864.0,1751.0,1180.0,1756.0,1752.0,103.18438720703125,-22.435239791870117,-73.3108139038086,Left
3301.491455078125,5127,1,1751.0,1756.0,1855.0,1873.0,1755.0,1427.0,1759.0,1756.0,103.18438720703125,-22.435239791870117,-73.3108139038086,Left
3303.491455078125,5127,1,1759.0,1759.0,2039.0,1788.0,1753.0,1589.0,1757.0,1756.0,103.18438720703125,-22.435239791870117,-73.3108139038086,Left
3305.491455078125,5127,1,1756.0,1762.0,1822.0,1801.0,1755.0,1919.0,1759.0,1752.0,103.18438720703125,-22.435239791870117,-73.3108139038086,Left
3307.22314453125,5128,1,1758.0,1765.0,1763.0,1771.0,1755.0,1811.0,1757.0,1755.0,103.18438720703125,-22.435239791870117,-73.3108139038086,Left
3309.22314453125,5128,1,1752.0,1769.0,1683.0,1752.0,1751.0,2508.0,1757.0,1739.0,103.19988250732422,-22.425411224365234,-73.3044662475586,Left
3311.22314453125,5128,1,1747.0,1757.0,1719.0,1740.0,1749.0,2457.0,1757.0,1735.0,103.19988250732422,-22.425411224365234,-73.3044662475586,Left
3313.22314453125,5128,1,1740.0,1753.0,1835.0,1670.0,1739.0,2121.0,1758.0,1734.0,103.19988250732422,-22.425411224365234,-73.3044662475586,Left
3315.22314453125,5128,1,1749.0,1749.0,1812.0,1757.0,1741.0,1445.0,1753.0,1736.0,103.19988250732422,-22.425411224365234,-73.3044662475586,Left
3339.89208984375,5129,1,1749.0,1753.0,1817.0,1755.0,1747.0,1177.0,1755.0,1733.0,103.19988250732422,-22.425411224365234,-73.3044662475586,Left
3341.89208984375,5129,1,1755.0,1757.0,1862.0,1757.0,1753.0,1165.0,1756.0,1752.0,103.19988250732422,-22.425411224365234,-73.3044662475586,Left
3343.89208984375,5129,1,1757.0,1765.0,1927.0,1753.0,1751.0,1404.0,1754.0,1755.0,103.19988250732422,-22.425411224365234,-73.3044662475586,Left
3345.89208984375,5129,1,1758.0,1764.0,1832.0,1746.0,1757.0,1592.0,1757.0,1758.0,103.19988250732422,-22.425411224365234,-73.3044662475586,Left
3347.89208984375,5129,1,1761.0,1771.0,1934.0,1721.0,1755.0,1917.0,1759.0,1752.0,103.19988250732422,-22.425411224365234,-73.3044662475586,Left
3339.89208984375,5130,1,1759.0,1767.0,1833.0,1786.0,1753.0,1773.0,1759.0,1753.0,103.19988250732422,-22.425411224365234,-73.3044662475586,Left
3341.89208984375,5130,1,1756.0,1753.0,1805.0,1749.0,1749.0,2479.0,1757.0,1747.0,103.19988250732422,-22.425411224365234,-73.3044662475586,Left
3343.89208984375,5130,1,1755.0,1749.0,1811.0,1783.0,1741.0,2438.0,1758.0,1737.0,103.19988250732422,-22.425411224365234,-73.3044662475586,Left
3345.89208984375,5130,1,1747.0,1748.0,1838.0,1773.0,1737.0,2153.0,1757.0,1735.0,103.19988250732422,-22.425411224365234,-73.3044662475586,Left
3347.89208984375,5130,1,1749.0,1751.0,1750.0,1775.0,1739.0,1432.0,1757.0,1737.0,103.19988250732422,-22.425411224365234,-73.3044662475586,Left
3339.89208984375,5131,1,1747.0,1753.0,1803.0,1827.0,1741.0,1254.0,1756.0,1741.0,103.19988250732422,-22.425411224365234,-73.3044662475586,Left
3341.89208984375,5131,1,1757.0,1753.0,1810.0,1879.0,1749.0,1147.0,1757.0,1749.0,103.19988250732422,-22.425411224365234,-73.3044662475586,Left
3343.89208984375,5131,1,1763.0,1765.0,1874.0,1863.0,1753.0,1432.0,1756.0,1752.0,103.19988250732422,-22.425411224365234,-73.3044662475586,Left
3345.89208984375,5131,1,1764.0,1769.0,1661.0,1863.0,1757.0,1581.0,1757.0,1755.0,103.19988250732422,-22.425411224365234,-73.3044662475586,Left
3347.89208984375,5131,1,1756.0,1758.0,1885.0,1807.0,1751.0,1901.0,1757.0,1749.0,103.19988250732422,-22.425411224365234,-73.3044662475586,Left
3345.75439453125,5132,1,1757.0,1755.0,1853.0,1823.0,1755.0,1759.0,1754.0,1758.0,103.19988250732422,-22.425411224365234,-73.3044662475586,Left
3347.75439453125,5132,1,1765.0,1765.0,2039.0,1813.0,1749.0,2493.0,1757.0,1745.0,103.19988250732422,-22.425411224365234,-73.3044662475586,Left
3349.75439453125,5132,1,1755.0,1747.0,1874.0,1719.0,1741.0,2429.0,1756.0,1726.0,103.19988250732422,-22.425411224365234,-73.3044662475586,Left
3351.75439453125,5132,1,1749.0,1741.0,1739.0,1716.0,1739.0,2165.0,1757.0,1735.0,103.19988250732422,-22.425411224365234,-73.3044662475586,Left
3353.75439453125,5132,1,1745.0,1751.0,1734.0,1663.0,1741.0,1417.0,1762.0,1739.0,103.19988250732422,-22.425411224365234,-73.3044662475586,Left
3398.214599609375,5133,1,1749.0,1757.0,1699.0,1711.0,1741.0,1276.0,1753.0,1735.0,103.19988250732422,-22.425411224365234,-73.3044662475586,Left
3400.214599609375,5133,1,1759.0,1779.0,1645.0,1727.0,1754.0,1135.0,1756.0,1750.0,103.19988250732422,-22.425411224365234,-73.3044662475586,Left
3402.214599609375,5133,1,1753.0,1755.0,1629.0,1652.0,1758.0,1405.0,1758.0,1752.0,103.19988250732422,-22.425411224365234,-73.3044662475586,Left
3404.214599609375,5133,1,1765.0,1771.0,1528.0,1657.0,1759.0,1593.0,1757.0,1758.0,103.19988250732422,-22.425411224365234,-73.3044662475586,Left
3406.214599609375,5133,1,1758.0,1753.0,1352.0,1663.0,1749.0,1907.0,1755.0,1749.0,103.19988250732422,-22.425411224365234,-73.3044662475586,Left
3398.214599609375,5134,1,1765.0,1755.0,1476.0,1685.0,1759.0,1791.0,1755.0,1755.0,103.19988250732422,-22.425411224365234,-73.3044662475586,Left
3400.214599609375,5134,1,1755.0,1758.0,1703.0,1704.0,1747.0,2491.0,1757.0,1743.0,103.19988250732422,-22.425411224365234,-73.3044662475586,Left
3402.214599609375,5134,1,1752.0,1755.0,1775.0,1663.0,1747.0,2398.0,1755.0,1735.0,103.19988250732422,-22.425411224365234,-73.3044662475586,Left
3404.214599609375,5134,1,1743.0,1751.0,1817.0,1675.0,1737.0,2202.0,1758.0,1723.0,103.23838806152344,-22.421268463134766,-73.2751235961914,Left
3406.214599609375,5134,1,1753.0,1752.0,1717.0,1679.0,1742.0,1435.0,1754.0,1735.0,103.23838806152344,-22.421268463134766,-73.2751235961914,Left
3399.59033203125,5135,1,1749.0,1757.0,1875.0,1689.0,1741.0,1251.0,1759.0,1747.0,103.23838806152344,-22.421268463134766,-73.2751235961914,Left
3401.59033203125,5135,1,1752.0,1757.0,1869.0,1727.0,1752.0,1151.0,1757.0,1754.0,103.23838806152344,-22.421268463134766,-73.2751235961914,Left
3403.59033203125,5135,1,1757.0,1765.0,1983.0,1704.0,1754.0,1407.0,1758.0,1755.0,103.23838806152344,-22.421268463134766,-73.2751235961914,Left
3405.59033203125,5135,1,1755.0,1767.0,1883.0,1687.0,1751.0,1576.0,1757.0,1757.0,103.23838806152344,-22.421268463134766,-73.2751235961914,Left
3407.59033203125,5135,1,1759.0,1765.0,1604.0,1653.0,1754.0,1910.0,1757.0,1752.0,103.23838806152344,-22.421268463134766,-73.2751235961914,Left
3399.59033203125,5136,1,1755.0,1759.0,1733.0,1749.0,1755.0,1717.0,1755.0,1749.0,103.23838806152344,-22.421268463134766,-73.2751235961914,Left
3401.59033203125,5136,1,1756.0,1753.0,1591.0,1781.0,1747.0,2493.0,1757.0,1747.0,103.23838806152344,-22.421268463134766,-73.2751235961914,Left
3403.59033203125,5136,1,1753.0,1765.0,1621.0,1815.0,1747.0,2379.0,1757.0,1737.0,103.23838806152344,-22.421268463134766,-73.2751235961914,Left
3405.59033203125,5136,1,1743.0,1739.0,1929.0,1805.0,1735.0,2219.0,1757.0,1726.0,103.23838806152344,-22.421268463134766,-73.2751235961914,Left
3407.59033203125,5136,1,1753.0,1749.0,1717.0,1834.0,1742.0,1419.0,1756.0,1739.0,103.23838806152344,-22.421268463134766,-73.2751235961914,Left
3399.59033203125,5137,1,1751.0,1750.0,1510.0,1847.0,1742.0,1209.0,1757.0,1743.0,103.23838806152344,-22.421268463134766,-73.2751235961914,Left
3401.59033203125,5137,1,1757.0,1758.0,1559.0,1791.0,1752.0,1135.0,1765.0,1753.0,103.23838806152344,-22.421268463134766,-73.2751235961914,Left
3403.59033203125,5137,1,1757.0,1757.0,1599.0,1711.0,1741.0,1405.0,1758.0,1753.0,103.23838806152344,-22.421268463134766,-73.2751235961914,Left
3405.59033203125,5137,1,1757.0,1767.0,1815.0,1709.0,1753.0,1572.0,1756.0,1755.0,103.23838806152344,-22.421268463134766,-73.2751235961914,Left
3407.59033203125,5137,1,1757.0,1763.0,1849.0,1812.0,1752.0,1925.0,1757.0,1753.0,103.23838806152344,-22.421268463134766,-73.2751235961914,Left
3406.1806640625,5138,1,1765.0,1766.0,1723.0,1823.0,1753.0,1725.0,1755.0,1755.0,103.23838806152344,-22.421268463134766,-73.2751235961914,Left
3408.1806640625,5138,1,1768.0,1757.0,1766.0,1787.0,1749.0,2506.0,1758.0,1749.0,103.23838806152344,-22.421268463134766,-73.2751235961914,Left
3410.1806640625,5138,1,1758.0,1753.0,1612.0,1763.0,1742.0,2379.0,1755.0,1737.0,103.23838806152344,-22.421268463134766,-73.2751235961914,Left
3412.1806640625,5138,1,1750.0,1745.0,1663.0,1800.0,1735.0,2233.0,1756.0,1725.0,103.23838806152344,-22.421268463134766,-73.2751235961914,Left
3414.1806640625,5138,1,1750.0,1752.0,1827.0,1848.0,1742.0,1462.0,1754.0,1739.0,103.23838806152344,-22.421268463134766,-73.2751235961914,Left
3418.234130859375,5139,1,1747.0,1756.0,1939.0,1773.0,1741.0,1208.0,1755.0,1743.0,103.23838806152344,-22.421268463134766,-73.2751235961914,Left
3420.234130859375,5139,1,1761.0,1761.0,1971.0,1741.0,1751.0,1129.0,1757.0,1754.0,103.23838806152344,-22.421268463134766,-73.2751235961914,Left
3422.234130859375,5139,1,1759.0,1759.0,1939.0,1786.0,1752.0,1407.0,1755.0,1753.0,103.23838806152344,-22.421268463134766,-73.2751235961914,Left
3424.234130859375,5139,1,1768.0,1759.0,1742.0,1823.0,1753.0,1528.0,1755.0,1755.0,103.23838806152344,-22.421268463134766,-73.2751235961914,Left
3426.234130859375,5139,1,1759.0,1763.0,1671.0,1843.0,1751.0,1917.0,1755.0,1752.0,103.23838806152344,-22.421268463134766,-73.2751235961914,Left
3426.264892578125,5140,1,1765.0,1768.0,1839.0,1810.0,1756.0,1703.0,1753.0,1749.0,103.23838806152344,-22.421268463134766,-73.2751235961914,Left
3428.264892578125,5140,1,1779.0,1762.0,1787.0,1763.0,1743.0,2507.0,1757.0,1738.0,103.23838806152344,-22.421268463134766,-73.2751235961914,Left
3430.264892578125,5140,1,1753.0,1755.0,1733.0,1699.0,1747.0,2348.0,1759.0,1737.0,103.23838806152344,-22.421268463134766,-73.2751235961914,Left
3432.264892578125,5140,1,1751.0,1752.0,1688.0,1688.0,1738.0,2221.0,1758.0,1726.0,103.23838806152344,-22.421268463134766,-73.2751235961914,Left
3434.264892578125,5140,1,1741.0,1750.0,1391.0,1662.0,1739.0,1455.0,1757.0,1742.0,103.23838806152344,-22.421268463134766,-73.2751235961914,Left
3501.15234375,5141,1,1755.0,1753.0,1559.0,1669.0,1741.0,1223.0,1755.0,1747.0,103.23838806152344,-22.421268463134766,-73.2751235961914,Left
3503.15234375,5141,1,1755.0,1763.0,1645.0,1703.0,1753.0,1126.0,1756.0,1755.0,103.22676849365234,-22.41620635986328,-73.26924896240234,Left
3505.15234375,5141,1,1759.0,1764.0,1695.0,1673.0,1755.0,1421.0,1758.0,1755.0,103.22676849365234,-22.41620635986328,-73.26924896240234,Left
3507.15234375,5141,1,1753.0,1771.0,1641.0,1721.0,1753.0,1563.0,1757.0,1759.0,103.22676849365234,-22.41620635986328,-73.26924896240234,Left
3509.15234375,5141,1,1757.0,1756.0,1903.0,1712.0,1743.0,1917.0,1757.0,1747.0,103.22676849365234,-22.41620635986328,-73.26924896240234,Left
3501.15234375,5142,1,1759.0,1768.0,1805.0,1741.0,1758.0,1723.0,1763.0,1751.0,103.22676849365234,-22.41620635986328,-73.26924896240234,Left
3503.15234375,5142,1,1757.0,1755.0,2008.0,1727.0,1750.0,2523.0,1759.0,1742.0,103.22676849365234,-22.41620635986328,-73.26924896240234,Left
3505.15234375,5142,1,1753.0,1752.0,1991.0,1763.0,1746.0,2343.0,1757.0,1738.0,103.22676849365234,-22.41620635986328,-73.26924896240234,Left
3507.15234375,5142,1,1746.0,1739.0,1783.0,1812.0,1735.0,2281.0,1755.0,1725.0,103.22676849365234,-22.41620635986328,-73.26924896240234,Left
3509.15234375,5142,1,1741.0,1751.0,1785.0,1805.0,1747.0,1449.0,1757.0,1738.0,103.22676849365234,-22.41620635986328,-73.26924896240234,Left
3502.467529296875,5143,1,1754.0,1761.0,1773.0,1824.0,1740.0,1277.0,1758.0,1743.0,103.22676849365234,-22.41620635986328,-73.26924896240234,Left
3504.467529296875,5143,1,1752.0,1765.0,1812.0,1772.0,1753.0,1119.0,1755.0,1752.0,103.22676849365234,-22.41620635986328,-73.26924896240234,Left
3506.467529296875,5143,1,1753.0,1757.0,1741.0,1785.0,1755.0,1407.0,1757.0,1754.0,103.22676849365234,-22.41620635986328,-73.26924896240234,Left
3508.467529296875,5143,1,1763.0,1766.0,1800.0,1735.0,1755.0,1531.0,1757.0,1753.0,103.22676849365234,-22.41620635986328,-73.26924896240234,Left
3510.467529296875,5143,1,1763.0,1756.0,1694.0,1773.0,1755.0,1927.0,1759.0,1753.0,103.22676849365234,-22.41620635986328,-73.26924896240234,Left
3502.467529296875,5144,1,1765.0,1767.0,1593.0,1772.0,1755.0,1671.0,1753.0,1759.0,103.22676849365234,-22.41620635986328,-73.26924896240234,Left
3504.467529296875,5144,1,1749.0,1757.0,1509.0,1773.0,1749.0,2507.0,1757.0,1740.0,103.22676849365234,-22.41620635986328,-73.26924896240234,Left
3506.467529296875,5144,1,1755.0,1765.0,1518.0,1740.0,1746.0,2345.0,1757.0,1736.0,103.22676849365234,-22.41620635986328,-73.26924896240234,Left
3508.467529296875,5144,1,1743.0,1750.0,1736.0,1701.0,1735.0,2287.0,1757.0,1725.0,103.22676849365234,-22.41620635986328,-73.26924896240234,Left
3510.467529296875,5144,1,1747.0,1749.0,1724.0,1694.0,1742.0,1459.0,1757.0,1739.0,103.22676849365234,-22.41620635986328,-73.26924896240234,Left
3503.46337890625,5145,1,1751.0,1749.0,1885.0,1689.0,1739.0,1367.0,1757.0,1747.0,103.22676849365234,-22.41620635986328,-73.26924896240234,Left
3505.46337890625,5145,1,1759.0,1756.0,2120.0,1736.0,1753.0,1111.0,1756.0,1755.0,103.22676849365234,-22.41620635986328,-73.26924896240234,Left
3507.46337890625,5145,1,1763.0,1757.0,1927.0,1678.0,1753.0,1404.0,1757.0,1762.0,103.22676849365234,-22.41620635986328,-73.26924896240234,Left
3509.46337890625,5145,1,1762.0,1759.0,1925.0,1759.0,1753.0,1532.0,1759.0,1753.0,103.22676849365234,-22.41620635986328,-73.26924896240234,Left
3511.46337890625,5145,1,1755.0,1763.0,1635.0,1781.0,1749.0,1938.0,1757.0,1747.0,103.22676849365234,-22.41620635986328,-73.26924896240234,Left
3503.46337890625,5146,1,1757.0,1765.0,1495.0,1800.0,1755.0,1671.0,1756.0,1751.0,103.22676849365234,-22.41620635986328,-73.26924896240234,Left
3505.46337890625,5146,1,1751.0,1763.0,1459.0,1774.0,1749.0,2489.0,1757.0,1737.0,103.22676849365234,-22.41620635986328,-73.26924896240234,Left
3507.46337890625,5146,1,1757.0,1755.0,1711.0,1743.0,1755.0,2341.0,1755.0,1725.0,103.22676849365234,-22.41620635986328,-73.26924896240234,Left
3509.46337890625,5146,1,1738.0,1745.0,1661.0,1686.0,1724.0,2286.0,1756.0,1727.0,103.22676849365234,-22.41620635986328,-73.26924896240234,Left
3511.46337890625,5146,1,1742.0,1749.0,1553.0,1774.0,1735.0,1443.0,1755.0,1723.0,103.22676849365234,-22.41620635986328,-73.26924896240234,Left
3503.46337890625,5147,1,1752.0,1722.0,1597.0,1799.0,1715.0,1414.0,1751.0,1759.0,103.22676849365234,-22.41620635986328,-73.26924896240234,Left
3505.46337890625,5147,1,1751.0,1748.0,1701.0,1821.0,1735.0,1139.0,1757.0,1753.0,103.22676849365234,-22.41620635986328,-73.26924896240234,Left
3507.46337890625,5147,1,1767.0,1789.0,1591.0,1817.0,1776.0,1417.0,1757.0,1763.0,103.22676849365234,-22.41620635986328,-73.26924896240234,Left
3509.46337890625,5147,1,1769.0,1783.0,1545.0,1807.0,1767.0,1492.0,1759.0,1753.0,103.22676849365234,-22.41620635986328,-73.26924896240234,Left
3511.46337890625,5147,1,1765.0,1753.0,1553.0,1785.0,1746.0,1911.0,1754.0,1757.0,103.23324584960938,-22.403905868530273,-73.23661804199219,Left
3506.298583984375,5148,1,1763.0,1781.0,1637.0,1814.0,1753.0,1640.0,1755.0,1754.0,103.23324584960938,-22.403905868530273,-73.23661804199219,Left
3508.298583984375,5148,1,1757.0,1757.0,1702.0,1765.0,1752.0,2509.0,1756.0,1741.0,103.23324584960938,-22.403905868530273,-73.23661804199219,Left
3510.298583984375,5148,1,1754.0,1753.0,1805.0,1691.0,1755.0,2355.0,1757.0,1726.0,103.23324584960938,-22.403905868530273,-73.23661804199219,Left
3512.298583984375,5148,1,1735.0,1737.0,1893.0,1639.0,1725.0,2339.0,1755.0,1719.0,103.23324584960938,-22.403905868530273,-73.23661804199219,Left
3514.298583984375,5148,1,1743.0,1738.0,1747.0,1671.0,1723.0,1485.0,1759.0,1737.0,103.23324584960938,-22.403905868530273,-73.23661804199219,Left
3517.54443359375,5149,1,1751.0,1764.0,1783.0,1699.0,1738.0,1451.0,1757.0,1755.0,103.23324584960938,-22.403905868530273,-73.23661804199219,Left
3519.54443359375,5149,1,1755.0,1770.0,1883.0,1737.0,1766.0,1096.0,1757.0,1757.0,103.23324584960938,-22.403905868530273,-73.23661804199219,Left
3521.54443359375,5149,1,1753.0,1757.0,1823.0,1773.0,1747.0,1401.0,1757.0,1756.0,103.23324584960938,-22.403905868530273,-73.23661804199219,Left
3523.54443359375,5149,1,1757.0,1773.0,1735.0,1791.0,1767.0,1501.0,1758.0,1764.0,103.23324584960938,-22.403905868530273,-73.23661804199219,Left
3525.54443359375,5149,1,1767.0,1765.0,1652.0,1720.0,1752.0,1915.0,1755.0,1749.0,103.23324584960938,-22.403905868530273,-73.23661804199219,Left
3525.524169921875,5150,1,1766.0,1754.0,1755.0,1701.0,1749.0,1629.0,1758.0,1755.0,103.23324584960938,-22.403905868530273,-73.23661804199219,Left
3527.524169921875,5150,1,1762.0,1742.0,1657.0,1663.0,1749.0,2511.0,1757.0,1751.0,103.23324584960938,-22.403905868530273,-73.23661804199219,Left
3529.524169921875,5150,1,1752.0,1725.0,1876.0,1615.0,1719.0,2351.0,1758.0,1740.0,103.23324584960938,-22.403905868530273,-73.23661804199219,Left
3531.524169921875,5150,1,1747.0,1743.0,1787.0,1655.0,1753.0,2345.0,1759.0,1734.0,103.23324584960938,-22.403905868530273,-73.23661804199219,Left
3533.524169921875,5150,1,1753.0,1751.0,1661.0,1745.0,1759.0,1469.0,1757.0,1735.0,103.23324584960938,-22.403905868530273,-73.23661804199219,Left
3536.12060546875,5151,1,1750.0,1780.0,1707.0,1720.0,1759.0,1334.0,1757.0,1733.0,103.23324584960938,-22.403905868530273,-73.23661804199219,Left
3538.12060546875,5151,1,1739.0,1800.0,1763.0,1735.0,1767.0,1081.0,1755.0,1735.0,103.23324584960938,-22.403905868530273,-73.23661804199219,Left
3540.12060546875,5151,1,1745.0,1757.0,1663.0,1715.0,1735.0,1416.0,1755.0,1747.0,103.23324584960938,-22.403905868530273,-73.23661804199219,Left
3542.12060546875,5151,1,1741.0,1759.0,1683.0,1727.0,1708.0,1565.0,1755.0,1756.0,103.23324584960938,-22.403905868530273,-73.23661804199219,Left
3544.12060546875,5151,1,1769.0,1774.0,1765.0,1784.0,1755.0,1963.0,1757.0,1769.0,103.23324584960938,-22.403905868530273,-73.23661804199219,Left
3576.603271484375,5152,1,1780.0,1739.0,1631.0,1741.0,1763.0,1711.0,1757.0,1775.0,103.23324584960938,-22.403905868530273,-73.23661804199219,Left
3578.603271484375,5152,1,1767.0,1797.0,1787.0,1734.0,1810.0,2595.0,1757.0,1755.0,103.23324584960938,-22.403905868530273,-73.23661804199219,Left
3580.603271484375,5152,1,1768.0,1761.0,1763.0,1791.0,1751.0,2440.0,1759.0,1735.0,103.23324584960938,-22.403905868530273,-73.23661804199219,Left
3582.603271484375,5152,1,1741.0,1747.0,2076.0,1849.0,1695.0,2491.0,1757.0,1716.0,103.23324584960938,-22.403905868530273,-73.23661804199219,Left
3584.603271484375,5152,1,1735.0,1752.0,1955.0,1813.0,1747.0,1575.0,1756.0,1725.0,103.23324584960938,-22.403905868530273,-73.23661804199219,Left
3576.603271484375,5153,1,1751.0,1741.0,1971.0,1784.0,1748.0,1397.0,1752.0,1715.0,103.23324584960938,-22.403905868530273,-73.23661804199219,Left
3578.603271484375,5153,1,1755.0,1709.0,1901.0,1845.0,1755.0,1213.0,1757.0,1747.0,103.23324584960938,-22.403905868530273,-73.23661804199219,Left
3580.603271484375,5153,1,1783.0,1757.0,1782.0,1839.0,1787.0,1551.0,1757.0,1763.0,103.23324584960938,-22.403905868530273,-73.23661804199219,Left
3582.603271484375,5153,1,1779.0,1779.0,1819.0,1885.0,1747.0,1579.0,1757.0,1767.0,103.23324584960938,-22.403905868530273,-73.23661804199219,Left
3584.603271484375,5153,1,1767.0,1772.0,1739.0,1817.0,1752.0,2027.0,1756.0,1764.0,103.23324584960938,-22.403905868530273,-73.23661804199219,Left
3577.60302734375,5154,1,1765.0,1755.0,1879.0,1839.0,1746.0,1621.0,1757.0,1753.0,103.23324584960938,-22.403905868530273,-73.23661804199219,Left
3579.60302734375,5154,1,1757.0,1784.0,1911.0,1822.0,1765.0,2807.0,1756.0,1738.0,103.1792984008789,-22.44000816345215,-73.32450866699219,Left
3581.60302734375,5154,1,1747.0,1753.0,1685.0,1753.0,1740.0,2607.0,1755.0,1725.0,103.1792984008789,-22.44000816345215,-73.32450866699219,Left
3583.60302734375,5154,1,1756.0,1749.0,1679.0,1747.0,1727.0,2615.0,1757.0,1759.0,103.1792984008789,-22.44000816345215,-73.32450866699219,Left
3585.60302734375,5154,1,1749.0,1739.0,1676.0,1770.0,1727.0,1181.0,1757.0,1723.0,103.1792984008789,-22.44000816345215,-73.32450866699219,Left
3577.60302734375,5155,1,1737.0,1741.0,1719.0,1816.0,1739.0,1171.0,1757.0,1727.0,103.1792984008789,-22.44000816345215,-73.32450866699219,Left
3579.60302734375,5155,1,1756.0,1747.0,1787.0,1821.0,1749.0,723.0,1757.0,1757.0,103.1792984008789,-22.44000816345215,-73.32450866699219,Left
3581.60302734375,5155,1,1756.0,1716.0,1822.0,1757.0,1734.0,715.0,1755.0,1763.0,103.1792984008789,-22.44000816345215,-73.32450866699219,Left
3583.60302734375,5155,1,1759.0,1740.0,1967.0,1699.0,1741.0,0.0,1757.0,1753.0,103.1792984008789,-22.44000816345215,-73.32450866699219,Left
3585.60302734375,5155,1,1757.0,1861.0,1741.0,1736.0,1805.0,0.0,1757.0,1743.0,103.1792984008789,-22.44000816345215,-73.32450866699219,Left
3586.747314453125,5156,1,1751.0,1772.0,1791.0,1723.0,1756.0,0.0,1757.0,1746.0,103.1792984008789,-22.44000816345215,-73.32450866699219,Left
3588.747314453125,5156,1,1767.0,1764.0,1716.0,1725.0,1753.0,0.0,1757.0,1748.0,103.1792984008789,-22.44000816345215,-73.32450866699219,Left
3590.747314453125,5156,1,1755.0,1756.0,1737.0,1683.0,1742.0,1501.0,1765.0,1749.0,103.1792984008789,-22.44000816345215,-73.32450866699219,Left
3592.747314453125,5156,1,1763.0,1739.0,1847.0,1757.0,1733.0,3789.0,1758.0,1743.0,103.1792984008789,-22.44000816345215,-73.32450866699219,Left
3594.747314453125,5156,1,1753.0,1747.0,1739.0,1836.0,1735.0,2554.0,1755.0,1735.0,103.1792984008789,-22.44000816345215,-73.32450866699219,Left
3596.501708984375,5157,1,1739.0,1738.0,1657.0,1755.0,1726.0,1119.0,1757.0,1747.0,103.1792984008789,-22.44000816345215,-73.32450866699219,Left
3598.501708984375,5157,1,1765.0,1737.0,1561.0,1803.0,1741.0,0.0,1757.0,1769.0,103.1792984008789,-22.44000816345215,-73.32450866699219,Left
3600.501708984375,5157,1,1758.0,1751.0,1735.0,1779.0,1746.0,0.0,1757.0,1761.0,103.1792984008789,-22.44000816345215,-73.32450866699219,Left
3602.501708984375,5157,1,1765.0,1785.0,1701.0,1800.0,1783.0,0.0,1758.0,1759.0,103.1792984008789,-22.44000816345215,-73.32450866699219,Left
3604.501708984375,5157,1,1763.0,1771.0,1621.0,1775.0,1759.0,0.0,1757.0,1740.0,103.1792984008789,-22.44000816345215,-73.32450866699219,Left
3607.0341796875,5158,1,1749.0,1751.0,1517.0,1656.0,1754.0,0.0,1756.0,1737.0,103.1792984008789,-22.44000816345215,-73.32450866699219,Left
3609.0341796875,5158,1,1757.0,1754.0,1491.0,1639.0,1747.0,0.0,1759.0,1727.0,103.1792984008789,-22.44000816345215,-73.32450866699219,Left
3611.0341796875,5158,1,1756.0,1750.0,1478.0,1711.0,1735.0,1695.0,1756.0,1735.0,103.1792984008789,-22.44000816345215,-73.32450866699219,Left
3613.0341796875,5158,1,1724.0,1711.0,1435.0,1671.0,1700.0,3787.0,1756.0,1735.0,103.1792984008789,-22.44000816345215,-73.32450866699219,Left
3615.0341796875,5158,1,1773.0,1717.0,1485.0,1630.0,1723.0,3797.0,1755.0,1763.0,103.1792984008789,-22.44000816345215,-73.32450866699219,Left
3617.891845703125,5159,1,1762.0,1771.0,1606.0,1656.0,1758.0,2342.0,1753.0,1736.0,103.1792984008789,-22.44000816345215,-73.32450866699219,Left
3619.891845703125,5159,1,1767.0,1823.0,1699.0,1710.0,1803.0,0.0,1755.0,1751.0,103.1792984008789,-22.44000816345215,-73.32450866699219,Left
3621.891845703125,5159,1,1762.0,1775.0,1676.0,1765.0,1757.0,0.0,1757.0,1751.0,103.1792984008789,-22.44000816345215,-73.32450866699219,Left
3623.891845703125,5159,1,1764.0,1766.0,1525.0,1805.0,1757.0,0.0,1757.0,1757.0,103.1792984008789,-22.44000816345215,-73.32450866699219,Left
3625.891845703125,5159,1,1745.0,1753.0,1404.0,1812.0,1717.0,0.0,1757.0,1747.0,103.1792984008789,-22.44000816345215,-73.32450866699219,Left
3627.17431640625,5160,1,1754.0,1754.0,1541.0,1784.0,1742.0,0.0,1757.0,1739.0,103.1792984008789,-22.44000816345215,-73.32450866699219,Left
3629.17431640625,5160,1,1762.0,1750.0,1515.0,1707.0,1769.0,263.0,1756.0,1741.0,103.1792984008789,-22.44000816345215,-73.32450866699219,Left
3631.17431640625,5160,1,1769.0,1766.0,1462.0,1741.0,1801.0,2527.0,1758.0,1741.0,103.1792984008789,-22.44000816345215,-73.32450866699219,Left
3633.17431640625,5160,1,1735.0,1748.0,1834.0,1741.0,1683.0,3790.0,1755.0,1711.0,103.10623931884766,-23.377365112304688,-73.16487884521484,Left
3635.17431640625,5160,1,1725.0,1737.0,1583.0,1657.0,1719.0,3784.0,1758.0,1719.0,103.10623931884766,-23.377365112304688,-73.16487884521484,Left
3636.180419921875,5161,1,1749.0,1726.0,1688.0,1737.0,1768.0,2812.0,1758.0,1721.0,103.10623931884766,-23.377365112304688,-73.16487884521484,Left
3638.180419921875,5161,1,1755.0,1768.0,1625.0,1716.0,1813.0,0.0,1757.0,1753.0,103.10623931884766,-23.377365112304688,-73.16487884521484,Left
3640.180419921875,5161,1,1787.0,1768.0,1721.0,1735.0,1734.0,0.0,1757.0,1779.0,103.10623931884766,-23.377365112304688,-73.16487884521484,Left
3642.180419921875,5161,1,1759.0,1753.0,1774.0,1775.0,1736.0,0.0,1754.0,1773.0,103.10623931884766,-23.377365112304688,-73.16487884521484,Left
3644.180419921875,5161,1,1769.0,1770.0,1711.0,1774.0,1753.0,0.0,1757.0,1753.0,103.10623931884766,-23.377365112304688,-73.16487884521484,Left
3646.552734375,5162,1,1755.0,1749.0,1607.0,1773.0,1765.0,0.0,1755.0,1747.0,103.10623931884766,-23.377365112304688,-73.16487884521484,Left
3648.552734375,5162,1,1766.0,1799.0,1627.0,1851.0,1781.0,878.0,1757.0,1751.0,103.10623931884766,-23.377365112304688,-73.16487884521484,Left
3650.552734375,5162,1,1752.0,1763.0,1763.0,1896.0,1727.0,3223.0,1755.0,1735.0,103.10623931884766,-23.377365112304688,-73.16487884521484,Left
3652.552734375,5162,1,1736.0,1755.0,1945.0,1811.0,1723.0,3787.0,1756.0,1731.0,103.10623931884766,-23.377365112304688,-73.16487884521484,Left
3654.552734375,5162,1,1747.0,1769.0,2006.0,1759.0,1743.0,3795.0,1757.0,1735.0,103.10623931884766,-23.377365112304688,-73.16487884521484,Left
3656.518310546875,5163,1,1735.0,1725.0,1972.0,1805.0,1702.0,3177.0,1755.0,1735.0,103.10623931884766,-23.377365112304688,-73.16487884521484,Left
3658.518310546875,5163,1,1759.0,1757.0,2013.0,1769.0,1772.0,0.0,1757.0,1755.0,103.10623931884766,-23.377365112304688,-73.16487884521484,Left
3660.518310546875,5163,1,1757.0,1762.0,2040.0,1700.0,1758.0,0.0,1756.0,1751.0,103.10623931884766,-23.377365112304688,-73.16487884521484,Left
3662.518310546875,5163,1,1767.0,1764.0,2015.0,1704.0,1788.0,0.0,1757.0,1753.0,103.10623931884766,-23.377365112304688,-73.16487884521484,Left
3664.518310546875,5163,1,1768.0,1769.0,2067.0,1739.0,1755.0,0.0,1759.0,1749.0,103.10623931884766,-23.377365112304688,-73.16487884521484,Left
3666.4033203125,5164,1,1754.0,1764.0,2041.0,1781.0,1727.0,295.0,1756.0,1752.0,103.10623931884766,-23.377365112304688,-73.16487884521484,Left
3668.4033203125,5164,1,1755.0,1759.0,1932.0,1756.0,1718.0,1196.0,1757.0,1749.0,103.10623931884766,-23.377365112304688,-73.16487884521484,Left
3670.4033203125,5164,1,1751.0,1755.0,1965.0,1689.0,1739.0,3519.0,1758.0,1733.0,103.10623931884766,-23.377365112304688,-73.16487884521484,Left
3672.4033203125,5164,1,1741.0,1747.0,1935.0,1750.0,1767.0,3785.0,1757.0,1735.0,103.10623931884766,-23.377365112304688,-73.16487884521484,Left
3674.4033203125,5164,1,1759.0,1748.0,1864.0,1742.0,1773.0,3788.0,1759.0,1735.0,103.10623931884766,-23.377365112304688,-73.16487884521484,Left
3692.489501953125,5165,1,1737.0,1759.0,1699.0,1767.0,1739.0,3796.0,1759.0,1736.0,103.10623931884766,-23.377365112304688,-73.16487884521484,Left
3694.489501953125,5165,1,1755.0,1764.0,1581.0,1829.0,1741.0,70.0,1757.0,1750.0,103.10623931884766,-23.377365112304688,-73.16487884521484,Left
3696.489501953125,5165,1,1757.0,1758.0,1765.0,1853.0,1733.0,0.0,1757.0,1752.0,103.10623931884766,-23.377365112304688,-73.16487884521484,Left
3698.489501953125,5165,1,1751.0,1753.0,1802.0,1779.0,1741.0,0.0,1755.0,1758.0,103.10623931884766,-23.377365112304688,-73.16487884521484,Left
3700.489501953125,5165,1,1763.0,1766.0,1756.0,1709.0,1753.0,91.0,1756.0,1753.0,103.10623931884766,-23.377365112304688,-73.16487884521484,Left
3693.515380859375,5166,1,1758.0,1759.0,1929.0,1798.0,1752.0,426.0,1757.0,1747.0,103.10623931884766,-23.377365112304688,-73.16487884521484,Left
3695.515380859375,5166,1,1757.0,1754.0,1845.0,1823.0,1739.0,1253.0,1756.0,1741.0,103.10623931884766,-23.377365112304688,-73.16487884521484,Left
3697.515380859375,5166,1,1752.0,1752.0,1947.0,1784.0,1741.0,3788.0,1755.0,1739.0,103.10623931884766,-23.377365112304688,-73.16487884521484,Left
3699.515380859375,5166,1,1756.0,1749.0,1964.0,1821.0,1736.0,3787.0,1755.0,1737.0,103.10623931884766,-23.377365112304688,-73.16487884521484,Left
3701.515380859375,5166,1,1741.0,1756.0,1785.0,1853.0,1736.0,3788.0,1757.0,1721.0,103.10623931884766,-23.377365112304688,-73.16487884521484,Left
3696.1240234375,5167,1,1754.0,1763.0,1928.0,1891.0,1757.0,3787.0,1757.0,1753.0,103.10623931884766,-23.377365112304688,-73.16487884521484,Left
3698.1240234375,5167,1,1769.0,1764.0,1943.0,1836.0,1754.0,1864.0,1755.0,1772.0,103.10623931884766,-23.377365112304688,-73.16487884521484,Left
3700.1240234375,5167,1,1765.0,1763.0,1907.0,1819.0,1753.0,447.0,1755.0,1754.0,107.18829345703125,-25.05471420288086,-73.0604248046875,Left
3702.1240234375,5167,1,1753.0,1763.0,1937.0,1811.0,1749.0,0.0,1756.0,1747.0,107.18829345703125,-25.05471420288086,-73.0604248046875,Left
3704.1240234375,5167,1,1753.0,1768.0,1944.0,1771.0,1750.0,0.0,1757.0,1745.0,107.18829345703125,-25.05471420288086,-73.0604248046875,Left
3706.7392578125,5168,1,1758.0,1756.0,1728.0,1737.0,1746.0,0.0,1758.0,1749.0,107.18829345703125,-25.05471420288086,-73.0604248046875,Left
3708.7392578125,5168,1,1743.0,1759.0,1695.0,1709.0,1741.0,2151.0,1756.0,1735.0,107.18829345703125,-25.05471420288086,-73.0604248046875,Left
3710.7392578125,5168,1,1753.0,1747.0,1797.0,1752.0,1740.0,3796.0,1758.0,1742.0,107.18829345703125,-25.05471420288086,-73.0604248046875,Left
3712.7392578125,5168,1,1747.0,1747.0,1651.0,1772.0,1740.0,3787.0,1755.0,1735.0,107.18829345703125,-25.05471420288086,-73.0604248046875,Left
3714.7392578125,5168,1,1751.0,1769.0,1599.0,1779.0,1754.0,3796.0,1757.0,1739.0,107.18829345703125,-25.05471420288086,-73.0604248046875,Left
3716.83154296875,5169,1,1753.0,1752.0,1910.0,1865.0,1748.0,3134.0,1759.0,1743.0,107.18829345703125,-25.05471420288086,-73.0604248046875,Left
3718.83154296875,5169,1,1757.0,1735.0,1870.0,1928.0,1742.0,0.0,1755.0,1749.0,107.18829345703125,-25.05471420288086,-73.0604248046875,Left
3720.83154296875,5169,1,1756.0,1765.0,1902.0,1933.0,1759.0,0.0,1753.0,1753.0,107.18829345703125,-25.05471420288086,-73.0604248046875,Left
3722.83154296875,5169,1,1756.0,1767.0,1834.0,1875.0,1749.0,0.0,1755.0,1749.0,107.18829345703125,-25.05471420288086,-73.0604248046875,Left
3724.83154296875,5169,1,1759.0,1751.0,1717.0,1799.0,1741.0,0.0,1757.0,1747.0,107.18829345703125,-25.05471420288086,-73.0604248046875,Left
3727.97021484375,5170,1,1754.0,1753.0,1675.0,1726.0,1748.0,0.0,1757.0,1749.0,107.18829345703125,-25.05471420288086,-73.0604248046875,Left
3729.97021484375,5170,1,1755.0,1769.0,1589.0,1711.0,1753.0,2155.0,1757.0,1749.0,107.18829345703125,-25.05471420288086,-73.0604248046875,Left
3731.97021484375,5170,1,1757.0,1753.0,1583.0,1737.0,1743.0,3794.0,1757.0,1736.0,107.18829345703125,-25.05471420288086,-73.0604248046875,Left
3733.97021484375,5170,1,1751.0,1719.0,1448.0,1785.0,1717.0,3785.0,1755.0,1737.0,107.18829345703125,-25.05471420288086,-73.0604248046875,Left
3735.97021484375,5170,1,1735.0,1737.0,1479.0,1765.0,1673.0,3800.0,1757.0,1737.0,107.18829345703125,-25.05471420288086,-73.0604248046875,Left
3736.89990234375,5171,1,1753.0,1830.0,1553.0,1711.0,1801.0,3243.0,1755.0,1743.0,107.18829345703125,-25.05471420288086,-73.0604248046875,Left
3738.89990234375,5171,1,1768.0,1771.0,1607.0,1747.0,1797.0,0.0,1757.0,1737.0,107.18829345703125,-25.05471420288086,-73.0604248046875,Left
3740.89990234375,5171,1,1779.0,1755.0,1609.0,1723.0,1831.0,0.0,1756.0,1753.0,107.18829345703125,-25.05471420288086,-73.0604248046875,Left
3742.89990234375,5171,1,1781.0,1773.0,1582.0,1763.0,1759.0,0.0,1756.0,1752.0,107.18829345703125,-25.05471420288086,-73.0604248046875,Left
3744.89990234375,5171,1,1751.0,1755.0,1395.0,1737.0,1719.0,0.0,1758.0,1748.0,107.18829345703125,-25.05471420288086,-73.0604248046875,Left
3746.526123046875,5172,1,1747.0,1756.0,1431.0,1683.0,1737.0,261.0,1756.0,1748.0,107.18829345703125,-25.05471420288086,-73.0604248046875,Left
3748.526123046875,5172,1,1751.0,1749.0,1447.0,1636.0,1728.0,2141.0,1765.0,1741.0,107.18829345703125,-25.05471420288086,-73.0604248046875,Left
3750.526123046875,5172,1,1747.0,1752.0,1371.0,1640.0,1738.0,3789.0,1757.0,1735.0,107.18829345703125,-25.05471420288086,-73.0604248046875,Left
3752.526123046875,5172,1,1751.0,1755.0,1419.0,1652.0,1741.0,3791.0,1757.0,1727.0,107.18829345703125,-25.05471420288086,-73.0604248046875,Left
3754.526123046875,5172,1,1745.0,1719.0,1623.0,1695.0,1719.0,3787.0,1757.0,1741.0,107.18829345703125,-25.05471420288086,-73.0604248046875,Left
3758.210693359375,5173,1,1740.0,1711.0,1635.0,1689.0,1702.0,3795.0,1759.0,1739.0,107.18829345703125,-25.05471420288086,-73.0604248046875,Left
3760.210693359375,5173,1,1757.0,1821.0,1501.0,1769.0,1810.0,0.0,1757.0,1737.0,107.18829345703125,-25.05471420288086,-73.0604248046875,Left
3762.210693359375,5173,1,1756.0,1752.0,1561.0,1768.0,1739.0,0.0,1759.0,1736.0,107.18829345703125,-25.05471420288086,-73.0604248046875,Left
3764.210693359375,5173,1,1751.0,1752.0,1648.0,1739.0,1747.0,0.0,1757.0,1747.0,110.37261199951172,-26.882814407348633,-72.88787078857422,Left
3766.210693359375,5173,1,1755.0,1739.0,1659.0,1749.0,1737.0,0.0,1759.0,1755.0,110.37261199951172,-26.882814407348633,-72.88787078857422,Left
3837.55859375,5174,1,1765.0,1757.0,1597.0,1735.0,1748.0,307.0,1757.0,1755.0,110.37261199951172,-26.882814407348633,-72.88787078857422,Left
3839.55859375,5174,1,1757.0,1783.0,1723.0,1747.0,1757.0,2703.0,1763.0,1741.0,110.37261199951172,-26.882814407348633,-72.88787078857422,Left
3841.55859375,5174,1,1763.0,1755.0,1726.0,1816.0,1741.0,3790.0,1753.0,1727.0,110.37261199951172,-26.882814407348633,-72.88787078857422,Left
3843.55859375,5174,1,1753.0,1756.0,1850.0,1849.0,1743.0,3785.0,1756.0,1742.0,110.37261199951172,-26.882814407348633,-72.88787078857422,Left
3845.55859375,5174,1,1757.0,1755.0,1831.0,1844.0,1739.0,3788.0,1754.0,1748.0,110.37261199951172,-26.882814407348633,-72.88787078857422,Left
3837.55859375,5175,1,1757.0,1753.0,1934.0,1877.0,1739.0,3791.0,1753.0,1753.0,110.37261199951172,-26.882814407348633,-72.88787078857422,Left
3839.55859375,5175,1,1755.0,1755.0,1878.0,1838.0,1749.0,0.0,1757.0,1754.0,110.37261199951172,-26.882814407348633,-72.88787078857422,Left
3841.55859375,5175,1,1756.0,1756.0,1721.0,1800.0,1749.0,0.0,1755.0,1755.0,110.37261199951172,-26.882814407348633,-72.88787078857422,Left
3843.55859375,5175,1,1757.0,1757.0,1791.0,1837.0,1757.0,0.0,1756.0,1757.0,110.37261199951172,-26.882814407348633,-72.88787078857422,Left
3845.55859375,5175,1,1753.0,1753.0,1992.0,1893.0,1742.0,0.0,1759.0,1736.0,110.37261199951172,-26.882814407348633,-72.88787078857422,Left
3837.55859375,5176,1,1741.0,1747.0,1900.0,1870.0,1735.0,247.0,1754.0,1739.0,110.37261199951172,-26.882814407348633,-72.88787078857422,Left
3839.55859375,5176,1,1753.0,1757.0,1891.0,1815.0,1751.0,2790.0,1755.0,1755.0,110.37261199951172,-26.882814407348633,-72.88787078857422,Left
3841.55859375,5176,1,1759.0,1765.0,1785.0,1848.0,1763.0,3787.0,1757.0,1751.0,110.37261199951172,-26.882814407348633,-72.88787078857422,Left
3843.55859375,5176,1,1755.0,1758.0,1633.0,1879.0,1725.0,3787.0,1756.0,1733.0,110.37261199951172,-26.882814407348633,-72.88787078857422,Left
3845.55859375,5176,1,1741.0,1770.0,1640.0,1917.0,1741.0,3795.0,1755.0,1736.0,110.37261199951172,-26.882814407348633,-72.88787078857422,Left
3838.6796875,5177,1,1765.0,1772.0,1727.0,1883.0,1779.0,3224.0,1759.0,1751.0,110.37261199951172,-26.882814407348633,-72.88787078857422,Left
3840.6796875,5177,1,1752.0,1759.0,1830.0,1757.0,1727.0,0.0,1759.0,1748.0,110.37261199951172,-26.882814407348633,-72.88787078857422,Left
3842.6796875,5177,1,1757.0,1759.0,1853.0,1764.0,1727.0,0.0,1757.0,1751.0,110.37261199951172,-26.882814407348633,-72.88787078857422,Left
3844.6796875,5177,1,1751.0,1757.0,2152.0,1717.0,1737.0,0.0,1756.0,1752.0,110.37261199951172,-26.882814407348633,-72.88787078857422,Left
3846.6796875,5177,1,1754.0,1756.0,2175.0,1702.0,1749.0,0.0,1757.0,1750.0,110.37261199951172,-26.882814407348633,-72.88787078857422,Left
3838.6796875,5178,1,1759.0,1761.0,2111.0,1709.0,1753.0,343.0,1757.0,1754.0,110.37261199951172,-26.882814407348633,-72.88787078857422,Left
3840.6796875,5178,1,1767.0,1759.0,1981.0,1717.0,1749.0,2679.0,1757.0,1748.0,110.37261199951172,-26.882814407348633,-72.88787078857422,Left
3842.6796875,5178,1,1757.0,1759.0,1941.0,1770.0,1751.0,3787.0,0.0,1741.0,110.37261199951172,-26.882814407348633,-72.88787078857422,Left
3844.6796875,5178,1,1759.0,1752.0,1833.0,1820.0,1743.0,3784.0,0.0,1737.0,110.37261199951172,-26.882814407348633,-72.88787078857422,Left
3846.6796875,5178,1,1741.0,1747.0,1997.0,1829.0,1737.0,3788.0,0.0,1727.0,110.37261199951172,-26.882814407348633,-72.88787078857422,Left
3838.6796875,5179,1,1740.0,1753.0,2197.0,1963.0,1739.0,2957.0,0.0,1743.0,110.37261199951172,-26.882814407348633,-72.88787078857422,Left
3840.6796875,5179,1,1747.0,1763.0,2088.0,1875.0,1743.0,0.0,0.0,1748.0,110.37261199951172,-26.882814407348633,-72.88787078857422,Left
3842.6796875,5179,1,1752.0,1763.0,1951.0,1863.0,1751.0,0.0,0.0,1754.0,110.37261199951172,-26.882814407348633,-72.88787078857422,Left
3844.6796875,5179,1,1765.0,1765.0,1651.0,1851.0,1757.0,0.0,0.0,1757.0,110.37261199951172,-26.882814407348633,-72.88787078857422,Left
3846.6796875,5179,1,1768.0,1767.0,1605.0,1829.0,1756.0,117.0,0.0,1751.0,110.37261199951172,-26.882814407348633,-72.88787078857422,Left
3838.6796875,5180,1,1763.0,1767.0,1659.0,1829.0,1753.0,428.0,0.0,1755.0,110.37261199951172,-26.882814407348633,-72.88787078857422,Left
3840.6796875,5180,1,1755.0,1753.0,1813.0,1756.0,1741.0,2719.0,0.0,1739.0,113.85942077636719,-29.59298324584961,-72.05145263671875,Left
3842.6796875,5180,1,1757.0,1756.0,1684.0,1767.0,1740.0,3789.0,0.0,1737.0,113.85942077636719,-29.59298324584961,-72.05145263671875,Left
3844.6796875,5180,1,1749.0,1749.0,1579.0,1787.0,1735.0,3787.0,0.0,1735.0,113.85942077636719,-29.59298324584961,-72.05145263671875,Left
3846.6796875,5180,1,1747.0,1747.0,1459.0,1753.0,1723.0,3787.0,142.0,1741.0,113.85942077636719,-29.59298324584961,-72.05145263671875,Left
3839.678955078125,5181,1,1771.0,1767.0,1454.0,1753.0,1749.0,2495.0,457.0,1739.0,113.85942077636719,-29.59298324584961,-72.05145263671875,Left
3841.678955078125,5181,1,1753.0,1747.0,1436.0,1781.0,1741.0,0.0,677.0,1755.0,113.85942077636719,-29.59298324584961,-72.05145263671875,Left
3843.678955078125,5181,1,1765.0,1765.0,1469.0,1765.0,1752.0,0.0,853.0,1751.0,113.85942077636719,-29.59298324584961,-72.05145263671875,Left
3845.678955078125,5181,1,1763.0,1761.0,1532.0,1752.0,1747.0,0.0,1010.0,1751.0,113.85942077636719,-29.59298324584961,-72.05145263671875,Left
3847.678955078125,5181,1,1761.0,1787.0,1780.0,1743.0,1771.0,181.0,1125.0,1747.0,113.85942077636719,-29.59298324584961,-72.05145263671875,Left
3846.244384765625,5182,1,1753.0,1763.0,1739.0,1662.0,1753.0,504.0,1255.0,1749.0,113.85942077636719,-29.59298324584961,-72.05145263671875,Left
3848.244384765625,5182,1,1747.0,1747.0,1623.0,1651.0,1751.0,2969.0,1335.0,1739.0,113.85942077636719,-29.59298324584961,-72.05145263671875,Left
3850.244384765625,5182,1,1749.0,1757.0,1595.0,1715.0,1749.0,3795.0,1405.0,1743.0,113.85942077636719,-29.59298324584961,-72.05145263671875,Left
3852.244384765625,5182,1,1752.0,1749.0,1462.0,1639.0,1743.0,3785.0,1461.0,1736.0,113.85942077636719,-29.59298324584961,-72.05145263671875,Left
3854.244384765625,5182,1,1753.0,1747.0,1370.0,1676.0,1737.0,3785.0,1511.0,1741.0,113.85942077636719,-29.59298324584961,-72.05145263671875,Left
3855.499267578125,5183,1,1759.0,1749.0,1523.0,1735.0,1738.0,2174.0,1559.0,1749.0,113.85942077636719,-29.59298324584961,-72.05145263671875,Left
3857.499267578125,5183,1,1753.0,1751.0,1635.0,1773.0,1753.0,0.0,1589.0,1743.0,113.85942077636719,-29.59298324584961,-72.05145263671875,Left
3859.499267578125,5183,1,1747.0,1743.0,1673.0,1752.0,1748.0,0.0,1612.0,1748.0,113.85942077636719,-29.59298324584961,-72.05145263671875,Left
3861.499267578125,5183,1,1753.0,1769.0,1837.0,1751.0,1773.0,0.0,1637.0,1737.0,113.85942077636719,-29.59298324584961,-72.05145263671875,Left
3863.499267578125,5183,1,1766.0,1774.0,1855.0,1724.0,1763.0,235.0,1653.0,1747.0,113.85942077636719,-29.59298324584961,-72.05145263671875,Left
3866.7763671875,5184,1,1745.0,1735.0,1833.0,1639.0,1716.0,549.0,1671.0,1741.0,113.85942077636719,-29.59298324584961,-72.05145263671875,Left
3868.7763671875,5184,1,1772.0,1757.0,1801.0,1644.0,1775.0,3131.0,1682.0,1755.0,113.85942077636719,-29.59298324584961,-72.05145263671875,Left
3870.7763671875,5184,1,1774.0,1763.0,1832.0,1642.0,1756.0,3795.0,1695.0,1743.0,113.85942077636719,-29.59298324584961,-72.05145263671875,Left
3872.7763671875,5184,1,1749.0,1769.0,1784.0,1627.0,1751.0,3785.0,1977.0,1742.0,113.85942077636719,-29.59298324584961,-72.05145263671875,Left
3874.7763671875,5184,1,1750.0,1755.0,1863.0,1703.0,1735.0,3795.0,3703.0,1738.0,113.85942077636719,-29.59298324584961,-72.05145263671875,Left
3876.553466796875,5185,1,1751.0,1747.0,1847.0,1637.0,1735.0,2025.0,3827.0,1737.0,113.85942077636719,-29.59298324584961,-72.05145263671875,Left
3878.553466796875,5185,1,1740.0,1721.0,1723.0,1708.0,1735.0,0.0,3827.0,1741.0,113.85942077636719,-29.59298324584961,-72.05145263671875,Left
3880.553466796875,5185,1,1753.0,1770.0,1493.0,1688.0,1750.0,0.0,3823.0,1749.0,113.85942077636719,-29.59298324584961,-72.05145263671875,Left
3882.553466796875,5185,1,1762.0,1743.0,1727.0,1684.0,1715.0,31.0,3827.0,1749.0,113.85942077636719,-29.59298324584961,-72.05145263671875,Left
3884.553466796875,5185,1,1747.0,1741.0,1592.0,1622.0,1715.0,360.0,3819.0,1747.0,113.85942077636719,-29.59298324584961,-72.05145263671875,Left
3887.83154296875,5186,1,1764.0,1781.0,1811.0,1652.0,1787.0,645.0,3819.0,1749.0,113.85942077636719,-29.59298324584961,-72.05145263671875,Left
3889.83154296875,5186,1,1768.0,1770.0,1797.0,1659.0,1773.0,3321.0,3822.0,1743.0,113.85942077636719,-29.59298324584961,-72.05145263671875,Left
3891.83154296875,5186,1,1768.0,1767.0,1826.0,1725.0,1755.0,3795.0,3818.0,1737.0,113.85942077636719,-29.59298324584961,-72.05145263671875,Left
3893.83154296875,5186,1,1755.0,1751.0,1993.0,1717.0,1727.0,3784.0,3819.0,1739.0,118.96334075927734,-31.4295654296875,-70.79483795166016,Left
3895.83154296875,5186,1,1755.0,1749.0,1939.0,1771.0,1742.0,3787.0,3819.0,1745.0,118.96334075927734,-31.4295654296875,-70.79483795166016,Left
3898.105712890625,5187,1,1757.0,1747.0,1663.0,1725.0,1740.0,2078.0,3823.0,1749.0,118.96334075927734,-31.4295654296875,-70.79483795166016,Left
3900.105712890625,5187,1,1753.0,1752.0,1877.0,1764.0,1748.0,0.0,3821.0,1749.0,118.96334075927734,-31.4295654296875,-70.79483795166016,Left
3902.105712890625,5187,1,1748.0,1749.0,1701.0,1757.0,1740.0,0.0,3823.0,1751.0,118.96334075927734,-31.4295654296875,-70.79483795166016,Left
3904.105712890625,5187,1,1753.0,1753.0,1775.0,1715.0,1749.0,105.0,3817.0,1754.0,118.96334075927734,-31.4295654296875,-70.79483795166016,Left
3906.105712890625,5187,1,1757.0,1756.0,1670.0,1727.0,1742.0,413.0,3821.0,1746.0,118.96334075927734,-31.4295654296875,-70.79483795166016,Left
3929.171875,5188,1,1741.0,1752.0,1735.0,1766.0,1741.0,682.0,3827.0,1734.0,118.96334075927734,-31.4295654296875,-70.79483795166016,Left
3931.171875,5188,1,1747.0,1752.0,1687.0,1916.0,1751.0,3401.0,3821.0,1745.0,118.96334075927734,-31.4295654296875,-70.79483795166016,Left
3933.171875,5188,1,1753.0,1755.0,1709.0,1962.0,1736.0,3789.0,3823.0,1749.0,118.96334075927734,-31.4295654296875,-70.79483795166016,Left
3935.171875,5188,1,1755.0,1753.0,1881.0,2014.0,1735.0,3787.0,3828.0,1737.0,118.96334075927734,-31.4295654296875,-70.79483795166016,Left
3937.171875,5188,1,1759.0,1753.0,1948.0,2076.0,1752.0,3795.0,3833.0,1752.0,118.96334075927734,-31.4295654296875,-70.79483795166016,Left
3929.171875,5189,1,1765.0,1765.0,1721.0,2037.0,1773.0,1721.0,3821.0,1749.0,118.96334075927734,-31.4295654296875,-70.79483795166016,Left
3931.171875,5189,1,1757.0,1761.0,1454.0,2073.0,1747.0,0.0,3822.0,1751.0,118.96334075927734,-31.4295654296875,-70.79483795166016,Left
3933.171875,5189,1,1751.0,1758.0,1589.0,2045.0,1741.0,0.0,3823.0,1747.0,118.96334075927734,-31.4295654296875,-70.79483795166016,Left
3935.171875,5189,1,1751.0,1738.0,1676.0,1995.0,1723.0,147.0,3827.0,1747.0,118.96334075927734,-31.4295654296875,-70.79483795166016,Left
3937.171875,5189,1,1757.0,1747.0,1837.0,1910.0,1735.0,443.0,3823.0,1749.0,118.96334075927734,-31.4295654296875,-70.79483795166016,Left
3929.171875,5190,1,1755.0,1813.0,1955.0,1818.0,1773.0,714.0,3337.0,1739.0,118.96334075927734,-31.4295654296875,-70.79483795166016,Left
3931.171875,5190,1,1765.0,1771.0,2107.0,1675.0,1763.0,3135.0,2780.0,1749.0,118.96334075927734,-31.4295654296875,-70.79483795166016,Left
3933.171875,5190,1,1761.0,1763.0,2145.0,1480.0,1749.0,3789.0,2821.0,1740.0,118.96334075927734,-31.4295654296875,-70.79483795166016,Left
3935.171875,5190,1,1753.0,1747.0,2087.0,1423.0,1757.0,3789.0,2949.0,1743.0,118.96334075927734,-31.4295654296875,-70.79483795166016,Left
3937.171875,5190,1,1753.0,1753.0,2151.0,1456.0,1747.0,3797.0,3021.0,1743.0,118.96334075927734,-31.4295654296875,-70.79483795166016,Left
3937.18310546875,5191,1,1750.0,1755.0,1993.0,1566.0,1726.0,1245.0,3089.0,1737.0,118.96334075927734,-31.4295654296875,-70.79483795166016,Left
3939.18310546875,5191,1,1763.0,1759.0,1891.0,1619.0,1767.0,0.0,3095.0,1755.0,118.96334075927734,-31.4295654296875,-70.79483795166016,Left
3941.18310546875,5191,1,1765.0,1759.0,1817.0,1674.0,1763.0,0.0,2830.0,1753.0,118.96334075927734,-31.4295654296875,-70.79483795166016,Left
3943.18310546875,5191,1,1757.0,1754.0,1965.0,1691.0,1751.0,236.0,2631.0,1749.0,118.96334075927734,-31.4295654296875,-70.79483795166016,Left
3945.18310546875,5191,1,1748.0,1753.0,1843.0,1739.0,1737.0,527.0,2463.0,1741.0,118.96334075927734,-31.4295654296875,-70.79483795166016,Left
3946.5751953125,5192,1,1750.0,1753.0,1913.0,1699.0,1728.0,765.0,2323.0,1733.0,118.96334075927734,-31.4295654296875,-70.79483795166016,Left
3948.5751953125,5192,1,1745.0,1747.0,1833.0,1678.0,1724.0,3164.0,2223.0,1739.0,118.96334075927734,-31.4295654296875,-70.79483795166016,Left
3950.5751953125,5192,1,1755.0,1747.0,1695.0,1688.0,1737.0,3787.0,2139.0,1749.0,118.96334075927734,-31.4295654296875,-70.79483795166016,Left
3952.5751953125,5192,1,1771.0,1771.0,1491.0,1689.0,1747.0,3784.0,2071.0,1755.0,118.96334075927734,-31.4295654296875,-70.79483795166016,Left
3954.5751953125,5192,1,1758.0,1790.0,1685.0,1707.0,1789.0,3793.0,2013.0,1755.0,118.96334075927734,-31.4295654296875,-70.79483795166016,Left
3956.072021484375,5193,1,1742.0,1703.0,1589.0,1759.0,1675.0,1127.0,1963.0,1739.0,121.72888946533203,-32.99492263793945,-69.49224090576172,Left
3958.072021484375,5193,1,1773.0,1754.0,1560.0,1733.0,1785.0,0.0,1933.0,1751.0,121.72888946533203,-32.99492263793945,-69.49224090576172,Left
3960.072021484375,5193,1,1771.0,1753.0,1662.0,1736.0,1752.0,0.0,1900.0,1753.0,121.72888946533203,-32.99492263793945,-69.49224090576172,Left
3962.072021484375,5193,1,1784.0,1781.0,1914.0,1717.0,1819.0,291.0,1875.0,1749.0,121.72888946533203,-32.99492263793945,-69.49224090576172,Left
3964.072021484375,5193,1,1755.0,1759.0,1803.0,1747.0,1747.0,564.0,1861.0,1747.0,121.72888946533203,-32.99492263793945,-69.49224090576172,Left
4012.377685546875,5194,1,1747.0,1752.0,1711.0,1717.0,1733.0,799.0,1839.0,1727.0,121.72888946533203,-32.99492263793945,-69.49224090576172,Left
4014.377685546875,5194,1,1739.0,1749.0,1745.0,1662.0,1736.0,3196.0,1829.0,1740.0,121.72888946533203,-32.99492263793945,-69.49224090576172,Left
4016.377685546875,5194,1,1749.0,1748.0,1711.0,1718.0,1739.0,3788.0,1817.0,1741.0,121.72888946533203,-32.99492263793945,-69.49224090576172,Left
4018.377685546875,5194,1,1753.0,1752.0,1931.0,1741.0,1742.0,3788.0,1811.0,1747.0,121.72888946533203,-32.99492263793945,-69.49224090576172,Left
4020.377685546875,5194,1,1763.0,1753.0,1835.0,1715.0,1741.0,3795.0,1801.0,1755.0,121.72888946533203,-32.99492263793945,-69.49224090576172,Left
4013.40234375,5195,1,1739.0,1734.0,1735.0,1703.0,1717.0,1171.0,1791.0,1747.0,121.72888946533203,-32.99492263793945,-69.49224090576172,Left
4015.40234375,5195,1,1763.0,1742.0,1639.0,1767.0,1736.0,0.0,1789.0,1748.0,121.72888946533203,-32.99492263793945,-69.49224090576172,Left
4017.40234375,5195,1,1747.0,1781.0,1721.0,1781.0,1759.0,0.0,1785.0,1748.0,121.72888946533203,-32.99492263793945,-69.49224090576172,Left
4019.40234375,5195,1,1770.0,1775.0,1827.0,1772.0,1775.0,311.0,1785.0,1754.0,121.72888946533203,-32.99492263793945,-69.49224090576172,Left
4021.40234375,5195,1,1757.0,1757.0,1992.0,1742.0,1742.0,584.0,1782.0,1746.0,121.72888946533203,-32.99492263793945,-69.49224090576172,Left
4013.40234375,5196,1,1756.0,1746.0,2006.0,1725.0,1739.0,816.0,1773.0,1743.0,121.72888946533203,-32.99492263793945,-69.49224090576172,Left
4015.40234375,5196,1,1752.0,1767.0,1805.0,1747.0,1753.0,3448.0,1775.0,1753.0,121.72888946533203,-32.99492263793945,-69.49224090576172,Left
4017.40234375,5196,1,1765.0,1769.0,1863.0,1821.0,1753.0,3790.0,1768.0,1746.0,121.72888946533203,-32.99492263793945,-69.49224090576172,Left
4019.40234375,5196,1,1750.0,1751.0,1891.0,1960.0,1748.0,3795.0,1771.0,1736.0,121.72888946533203,-32.99492263793945,-69.49224090576172,Left
4021.40234375,5196,1,1747.0,1753.0,2024.0,2005.0,1741.0,3795.0,1771.0,1745.0,121.72888946533203,-32.99492263793945,-69.49224090576172,Left
4013.40234375,5197,1,1747.0,1756.0,2159.0,1981.0,1728.0,1135.0,1770.0,1741.0,121.72888946533203,-32.99492263793945,-69.49224090576172,Left
4015.40234375,5197,1,1752.0,1751.0,2127.0,1991.0,1735.0,0.0,1767.0,1746.0,121.72888946533203,-32.99492263793945,-69.49224090576172,Left
4017.40234375,5197,1,1751.0,1751.0,2001.0,1961.0,1733.0,0.0,1757.0,1740.0,121.72888946533203,-32.99492263793945,-69.49224090576172,Left
4019.40234375,5197,1,1747.0,1743.0,1937.0,1863.0,1737.0,309.0,1767.0,1747.0,121.72888946533203,-32.99492263793945,-69.49224090576172,Left
4021.40234375,5197,1,1763.0,1783.0,1891.0,1821.0,1770.0,583.0,1764.0,1751.0,121.72888946533203,-32.99492263793945,-69.49224090576172,Left
4013.40234375,5198,1,1749.0,1733.0,1726.0,1805.0,1745.0,810.0,1766.0,1759.0,121.72888946533203,-32.99492263793945,-69.49224090576172,Left
4015.40234375,5198,1,1769.0,1753.0,1765.0,1827.0,1747.0,2841.0,1766.0,1746.0,121.72888946533203,-32.99492263793945,-69.49224090576172,Left
4017.40234375,5198,1,1757.0,1812.0,1836.0,1783.0,1787.0,3791.0,1767.0,1741.0,121.72888946533203,-32.99492263793945,-69.49224090576172,Left
4019.40234375,5198,1,1765.0,1757.0,1912.0,1767.0,1745.0,3784.0,1767.0,1741.0,121.72888946533203,-32.99492263793945,-69.49224090576172,Left
4021.40234375,5198,1,1757.0,1755.0,1901.0,1709.0,1747.0,3789.0,1767.0,1743.0,121.72888946533203,-32.99492263793945,-69.49224090576172,Left
4017.393798828125,5199,1,1750.0,1751.0,1679.0,1839.0,1749.0,853.0,1765.0,1743.0,121.72888946533203,-32.99492263793945,-69.49224090576172,Left
4019.393798828125,5199,1,1750.0,1752.0,1703.0,1755.0,1737.0,0.0,1765.0,1749.0,121.72888946533203,-32.99492263793945,-69.49224090576172,Left
4021.393798828125,5199,1,1753.0,1748.0,1745.0,1735.0,1737.0,89.0,1765.0,1742.0,121.72888946533203,-32.99492263793945,-69.49224090576172,Left
4023.393798828125,5199,1,1753.0,1749.0,1639.0,1831.0,1739.0,409.0,1763.0,1747.0,121.7761001586914,-34.346656799316406,-68.28085327148438,Left
4025.393798828125,5199,1,1751.0,1761.0,1715.0,1806.0,1748.0,663.0,1767.0,1743.0,121.7761001586914,-34.346656799316406,-68.28085327148438,Left
4115.46826171875,5200,1,1751.0,1762.0,1677.0,1771.0,1711.0,883.0,1750.0,1739.0,121.7761001586914,-34.346656799316406,-68.28085327148438,Left
4117.46826171875,5200,1,1755.0,1784.0,1643.0,1721.0,1765.0,3118.0,1767.0,1752.0,121.7761001586914,-34.346656799316406,-68.28085327148438,Left
4119.46826171875,5200,1,1765.0,1736.0,1708.0,1762.0,1769.0,3787.0,1764.0,1742.0,121.7761001586914,-34.346656799316406,-68.28085327148438,Left
4121.46826171875,5200,1,1773.0,1759.0,1711.0,1800.0,1786.0,3789.0,1765.0,1741.0,121.7761001586914,-34.346656799316406,-68.28085327148438,Left
4123.46826171875,5200,1,1757.0,1763.0,1771.0,1800.0,1739.0,3791.0,1763.0,1742.0,121.7761001586914,-34.346656799316406,-68.28085327148438,Left
4116.47998046875,5201,1,1749.0,1754.0,1851.0,1866.0,1739.0,841.0,1763.0,1735.0,121.7761001586914,-34.346656799316406,-68.28085327148438,Left
4118.47998046875,5201,1,1741.0,1741.0,1803.0,1835.0,1718.0,0.0,1763.0,1735.0,121.7761001586914,-34.346656799316406,-68.28085327148438,Left
4120.47998046875,5201,1,1751.0,1753.0,1781.0,1827.0,1742.0,123.0,1761.0,1747.0,121.7761001586914,-34.346656799316406,-68.28085327148438,Left
4122.47998046875,5201,1,1757.0,1753.0,1870.0,1804.0,1742.0,437.0,1763.0,1742.0,121.7761001586914,-34.346656799316406,-68.28085327148438,Left
4124.47998046875,5201,1,1751.0,1757.0,1832.0,1718.0,1747.0,681.0,1763.0,1752.0,121.7761001586914,-34.346656799316406,-68.28085327148438,Left
4116.47998046875,5202,1,1754.0,1755.0,1911.0,1623.0,1742.0,895.0,1763.0,1745.0,121.7761001586914,-34.346656799316406,-68.28085327148438,Left
4118.47998046875,5202,1,1767.0,1756.0,1868.0,1507.0,1749.0,3003.0,1763.0,1751.0,121.7761001586914,-34.346656799316406,-68.28085327148438,Left
4120.47998046875,5202,1,1771.0,1765.0,1703.0,1469.0,1757.0,3795.0,1763.0,1751.0,121.7761001586914,-34.346656799316406,-68.28085327148438,Left
4122.47998046875,5202,1,1756.0,1769.0,1821.0,1415.0,1763.0,3786.0,1764.0,1749.0,121.7761001586914,-34.346656799316406,-68.28085327148438,Left
4124.47998046875,5202,1,1757.0,1765.0,1837.0,1480.0,1764.0,3791.0,1764.0,1750.0,121.7761001586914,-34.346656799316406,-68.28085327148438,Left
4117.4765625,5203,1,1751.0,1757.0,1749.0,1575.0,1741.0,847.0,1763.0,1743.0,121.7761001586914,-34.346656799316406,-68.28085327148438,Left
4119.4765625,5203,1,1755.0,1753.0,2036.0,1605.0,1740.0,0.0,1759.0,1739.0,121.7761001586914,-34.346656799316406,-68.28085327148438,Left
4121.4765625,5203,1,1757.0,1763.0,1839.0,1609.0,1745.0,91.0,1763.0,1746.0,121.7761001586914,-34.346656799316406,-68.28085327148438,Left
4123.4765625,5203,1,1755.0,1763.0,1781.0,1541.0,1753.0,419.0,1763.0,1755.0,121.7761001586914,-34.346656799316406,-68.28085327148438,Left
4125.4765625,5203,1,1759.0,1763.0,1771.0,1499.0,1738.0,665.0,1755.0,1747.0,121.7761001586914,-34.346656799316406,-68.28085327148438,Left
4117.4765625,5204,1,1751.0,1740.0,1788.0,1485.0,1723.0,883.0,1761.0,1747.0,121.7761001586914,-34.346656799316406,-68.28085327148438,Left
4119.4765625,5204,1,1749.0,1763.0,1701.0,1508.0,1721.0,2740.0,1761.0,1746.0,121.7761001586914,-34.346656799316406,-68.28085327148438,Left
4121.4765625,5204,1,1749.0,1755.0,1743.0,1599.0,1735.0,3787.0,1763.0,1747.0,121.7761001586914,-34.346656799316406,-68.28085327148438,Left
4123.4765625,5204,1,1755.0,1789.0,1635.0,1652.0,1769.0,3795.0,1763.0,1737.0,121.7761001586914,-34.346656799316406,-68.28085327148438,Left
4125.4765625,5204,1,1763.0,1763.0,1647.0,1773.0,1823.0,3793.0,1763.0,1749.0,121.7761001586914,-34.346656799316406,-68.28085327148438,Left
4118.4775390625,5205,1,1781.0,1751.0,1640.0,1855.0,1773.0,747.0,1759.0,1757.0,121.7761001586914,-34.346656799316406,-68.28085327148438,Left
4120.4775390625,5205,1,1766.0,1765.0,1739.0,1949.0,1726.0,0.0,1762.0,1746.0,121.7761001586914,-34.346656799316406,-68.28085327148438,Left
4122.4775390625,5205,1,1743.0,1753.0,1797.0,2043.0,1723.0,124.0,1759.0,1747.0,121.7761001586914,-34.346656799316406,-68.28085327148438,Left
4124.4775390625,5205,1,1751.0,1759.0,1717.0,2073.0,1740.0,440.0,1763.0,1749.0,121.7761001586914,-34.346656799316406,-68.28085327148438,Left
4126.4775390625,5205,1,1753.0,1758.0,1699.0,2029.0,1743.0,685.0,1765.0,1748.0,121.7761001586914,-34.346656799316406,-68.28085327148438,Left
4118.4775390625,5206,1,1743.0,1752.0,1916.0,1961.0,1740.0,903.0,1762.0,1736.0,121.7761001586914,-34.346656799316406,-68.28085327148438,Left
4120.4775390625,5206,1,1751.0,1753.0,1769.0,1948.0,1741.0,2788.0,1763.0,1739.0,122.46482849121094,-35.071067810058594,-67.61724853515625,Left
4122.4775390625,5206,1,1753.0,1755.0,1597.0,1973.0,1753.0,3787.0,1763.0,1741.0,122.46482849121094,-35.071067810058594,-67.61724853515625,Left
4124.4775390625,5206,1,1765.0,1756.0,1791.0,1951.0,1755.0,3788.0,1759.0,1753.0,122.46482849121094,-35.071067810058594,-67.61724853515625,Left
4126.4775390625,5206,1,1763.0,1755.0,1867.0,2057.0,1749.0,3791.0,1763.0,1749.0,122.46482849121094,-35.071067810058594,-67.61724853515625,Left
4118.4775390625,5207,1,1753.0,1759.0,1898.0,2011.0,1741.0,725.0,1717.0,1743.0,122.46482849121094,-35.071067810058594,-67.61724853515625,Left
4120.4775390625,5207,1,1752.0,1753.0,1827.0,2001.0,1738.0,0.0,1673.0,1749.0,122.46482849121094,-35.071067810058594,-67.61724853515625,Left
4122.4775390625,5207,1,1747.0,1769.0,1767.0,1929.0,1727.0,123.0,1629.0,1742.0,122.46482849121094,-35.071067810058594,-67.61724853515625,Left
4124.4775390625,5207,1,1763.0,1761.0,1683.0,1846.0,1783.0,437.0,1605.0,1751.0,122.46482849121094,-35.071067810058594,-67.61724853515625,Left
4126.4775390625,5207,1,1755.0,1759.0,1733.0,1931.0,1752.0,683.0,1580.0,1753.0,122.46482849121094,-35.071067810058594,-67.61724853515625,Left
4118.4775390625,5208,1,1754.0,1753.0,1962.0,1861.0,1753.0,895.0,1560.0,1753.0,122.46482849121094,-35.071067810058594,-67.61724853515625,Left
4120.4775390625,5208,1,1764.0,1753.0,1915.0,1779.0,1747.0,2635.0,1549.0,1748.0,122.46482849121094,-35.071067810058594,-67.61724853515625,Left
4122.4775390625,5208,1,1759.0,1755.0,1887.0,1759.0,1751.0,3789.0,1541.0,1739.0,122.46482849121094,-35.071067810058594,-67.61724853515625,Left
4124.4775390625,5208,1,1747.0,1752.0,1749.0,1807.0,1737.0,3787.0,1531.0,1735.0,122.46482849121094,-35.071067810058594,-67.61724853515625,Left
4126.4775390625,5208,1,1773.0,1767.0,1799.0,1831.0,1763.0,3791.0,1519.0,1755.0,122.46482849121094,-35.071067810058594,-67.61724853515625,Left
4118.4775390625,5209,1,1763.0,1752.0,1672.0,1885.0,1743.0,774.0,1513.0,1752.0,122.46482849121094,-35.071067810058594,-67.61724853515625,Left
4120.4775390625,5209,1,1753.0,1767.0,1678.0,1876.0,1749.0,0.0,1510.0,1745.0,122.46482849121094,-35.071067810058594,-67.61724853515625,Left
4122.4775390625,5209,1,1751.0,1753.0,1589.0,1912.0,1725.0,189.0,1503.0,1741.0,122.46482849121094,-35.071067810058594,-67.61724853515625,Left
4124.4775390625,5209,1,1768.0,1771.0,1623.0,1915.0,1763.0,486.0,1497.0,1749.0,122.46482849121094,-35.071067810058594,-67.61724853515625,Left
4126.4775390625,5209,1,1758.0,1737.0,1877.0,1911.0,1775.0,725.0,1494.0,1747.0,122.46482849121094,-35.071067810058594,-67.61724853515625,Left
4127.23681640625,5210,1,1763.0,1770.0,1787.0,1847.0,1753.0,931.0,1493.0,1749.0,122.46482849121094,-35.071067810058594,-67.61724853515625,Left
4129.23681640625,5210,1,1763.0,1757.0,1581.0,1797.0,1727.0,2595.0,1493.0,1749.0,122.46482849121094,-35.071067810058594,-67.61724853515625,Left
4131.23681640625,5210,1,1752.0,1748.0,1563.0,1783.0,1725.0,3793.0,1498.0,1745.0,122.46482849121094,-35.071067810058594,-67.61724853515625,Left
4133.23681640625,5210,1,1763.0,1757.0,1513.0,1845.0,1745.0,3790.0,1491.0,1740.0,122.46482849121094,-35.071067810058594,-67.61724853515625,Left
4135.23681640625,5210,1,1747.0,1756.0,1578.0,1901.0,1747.0,3793.0,1487.0,1741.0,122.46482849121094,-35.071067810058594,-67.61724853515625,Left
4230.83740234375,5211,1,1752.0,1761.0,1711.0,1952.0,1751.0,733.0,1480.0,1741.0,122.46482849121094,-35.071067810058594,-67.61724853515625,Left
4232.83740234375,5211,1,1751.0,1755.0,1720.0,1918.0,1737.0,0.0,1485.0,1750.0,122.46482849121094,-35.071067810058594,-67.61724853515625,Left
4234.83740234375,5211,1,1749.0,1753.0,1816.0,1868.0,1726.0,185.0,1486.0,1749.0,122.46482849121094,-35.071067810058594,-67.61724853515625,Left
4236.83740234375,5211,1,1755.0,1757.0,1837.0,1815.0,1759.0,485.0,1485.0,1747.0,122.46482849121094,-35.071067810058594,-67.61724853515625,Left
4238.83740234375,5211,1,1753.0,1764.0,1982.0,1837.0,1789.0,747.0,1472.0,1747.0,122.46482849121094,-35.071067810058594,-67.61724853515625,Left
4231.82421875,5212,1,1742.0,1759.0,1915.0,3820.0,1747.0,931.0,1483.0,1746.0,122.46482849121094,-35.071067810058594,-67.61724853515625,Left
4233.82421875,5212,1,1749.0,1757.0,1787.0,3815.0,1735.0,2601.0,1487.0,1747.0,122.46482849121094,-35.071067810058594,-67.61724853515625,Left
4235.82421875,5212,1,1755.0,1759.0,1797.0,3806.0,1749.0,3795.0,1482.0,1741.0,122.46482849121094,-35.071067810058594,-67.61724853515625,Left
4237.82421875,5212,1,1751.0,1749.0,1679.0,3813.0,1753.0,3787.0,1485.0,1740.0,122.15438079833984,-35.61415100097656,-67.11949157714844,Left
4239.82421875,5212,1,1757.0,1765.0,1847.0,3813.0,1750.0,3791.0,1481.0,1753.0,122.15438079833984,-35.61415100097656,-67.11949157714844,Left
4231.82421875,5213,1,1749.0,1753.0,1805.0,3576.0,1748.0,787.0,1486.0,1743.0,122.15438079833984,-35.61415100097656,-67.11949157714844,Left
4233.82421875,5213,1,1763.0,1758.0,1871.0,3157.0,1751.0,0.0,1485.0,1753.0,122.15438079833984,-35.61415100097656,-67.11949157714844,Left
4235.82421875,5213,1,1746.0,1751.0,1781.0,2857.0,1733.0,187.0,1483.0,1735.0,122.15438079833984,-35.61415100097656,-67.11949157714844,Left
4237.82421875,5213,1,1751.0,1755.0,1831.0,2636.0,1739.0,489.0,1490.0,1741.0,122.15438079833984,-35.61415100097656,-67.11949157714844,Left
4239.82421875,5213,1,1742.0,1755.0,1913.0,2471.0,1755.0,725.0,1485.0,1743.0,122.15438079833984,-35.61415100097656,-67.11949157714844,Left
4232.8232421875,5214,1,1763.0,1765.0,1822.0,2317.0,1737.0,930.0,1483.0,1751.0,122.15438079833984,-35.61415100097656,-67.11949157714844,Left
4234.8232421875,5214,1,1764.0,1757.0,1751.0,2216.0,1740.0,2421.0,1492.0,1751.0,122.15438079833984,-35.61415100097656,-67.11949157714844,Left
4236.8232421875,5214,1,1767.0,1760.0,1669.0,2125.0,1766.0,3789.0,1493.0,1755.0,122.15438079833984,-35.61415100097656,-67.11949157714844,Left
4238.8232421875,5214,1,1755.0,1743.0,1653.0,2063.0,1748.0,3789.0,1493.0,1738.0,122.15438079833984,-35.61415100097656,-67.11949157714844,Left
4240.8232421875,5214,1,1768.0,1763.0,1630.0,2001.0,1763.0,3797.0,1505.0,1747.0,122.15438079833984,-35.61415100097656,-67.11949157714844,Left
4232.8232421875,5215,1,1757.0,1759.0,1699.0,1949.0,1739.0,815.0,1494.0,1743.0,122.15438079833984,-35.61415100097656,-67.11949157714844,Left
4234.8232421875,5215,1,1751.0,1756.0,1583.0,1913.0,1743.0,0.0,1494.0,1747.0,122.15438079833984,-35.61415100097656,-67.11949157714844,Left
4236.8232421875,5215,1,1757.0,1755.0,1743.0,1886.0,1746.0,169.0,1491.0,1752.0,122.15438079833984,-35.61415100097656,-67.11949157714844,Left
4238.8232421875,5215,1,1761.0,1759.0,1657.0,1867.0,1752.0,472.0,1491.0,1753.0,122.15438079833984,-35.61415100097656,-67.11949157714844,Left
4240.8232421875,5215,1,1755.0,1762.0,1711.0,1844.0,1747.0,713.0,1496.0,1748.0,122.15438079833984,-35.61415100097656,-67.11949157714844,Left
4232.8232421875,5216,1,1752.0,1756.0,1877.0,1823.0,1757.0,910.0,1481.0,1740.0,122.15438079833984,-35.61415100097656,-67.11949157714844,Left
4234.8232421875,5216,1,1742.0,1754.0,1743.0,1815.0,1739.0,2299.0,1499.0,1738.0,122.15438079833984,-35.61415100097656,-67.11949157714844,Left
4236.8232421875,5216,1,1749.0,1747.0,1689.0,1809.0,1723.0,3789.0,1499.0,1736.0,122.15438079833984,-35.61415100097656,-67.11949157714844,Left
4238.8232421875,5216,1,1757.0,1752.0,1635.0,1799.0,1748.0,3789.0,1499.0,1745.0,122.15438079833984,-35.61415100097656,-67.11949157714844,Left
4240.8232421875,5216,1,1768.0,1757.0,1742.0,1790.0,1763.0,3797.0,1495.0,1747.0,122.15438079833984,-35.61415100097656,-67.11949157714844,Left
4232.8232421875,5217,1,1754.0,1763.0,1903.0,1783.0,1727.0,905.0,1499.0,1751.0,122.15438079833984,-35.61415100097656,-67.11949157714844,Left
4234.8232421875,5217,1,1745.0,1757.0,1692.0,1781.0,1711.0,0.0,1499.0,1741.0,122.15438079833984,-35.61415100097656,-67.11949157714844,Left
4236.8232421875,5217,1,1747.0,1761.0,1781.0,1778.0,1771.0,199.0,1497.0,1749.0,122.15438079833984,-35.61415100097656,-67.11949157714844,Left
4238.8232421875,5217,1,1769.0,1769.0,1672.0,1770.0,1853.0,487.0,1499.0,1759.0,122.15438079833984,-35.61415100097656,-67.11949157714844,Left
4240.8232421875,5217,1,1765.0,1767.0,1629.0,1773.0,1750.0,726.0,1503.0,1750.0,122.15438079833984,-35.61415100097656,-67.11949157714844,Left
4233.91015625,5218,1,1763.0,1764.0,1800.0,1768.0,1761.0,938.0,1501.0,1755.0,122.15438079833984,-35.61415100097656,-67.11949157714844,Left
4235.91015625,5218,1,1746.0,1759.0,1695.0,1769.0,1733.0,2117.0,1507.0,1739.0,122.15438079833984,-35.61415100097656,-67.11949157714844,Left
4237.91015625,5218,1,1765.0,1779.0,1707.0,1768.0,1763.0,3787.0,1507.0,1743.0,122.15438079833984,-35.61415100097656,-67.11949157714844,Left
4239.91015625,5218,1,1740.0,1735.0,1741.0,1767.0,1726.0,3785.0,1507.0,1739.0,122.15438079833984,-35.61415100097656,-67.11949157714844,Left
4241.91015625,5218,1,1751.0,1756.0,1945.0,1767.0,1742.0,3796.0,1501.0,1751.0,122.15438079833984,-35.61415100097656,-67.11949157714844,Left
4233.91015625,5219,1,1753.0,1743.0,2021.0,1762.0,1719.0,947.0,1501.0,1741.0,122.15438079833984,-35.61415100097656,-67.11949157714844,Left
4235.91015625,5219,1,1753.0,1753.0,1956.0,1765.0,1735.0,0.0,1503.0,1749.0,121.87913513183594,-35.976524353027344,-66.93914794921875,Left
4237.91015625,5219,1,1743.0,1751.0,1784.0,1765.0,1727.0,191.0,1501.0,1747.0,121.87913513183594,-35.976524353027344,-66.93914794921875,Left
4239.91015625,5219,1,1773.0,1773.0,1671.0,1759.0,1785.0,489.0,1502.0,1755.0,121.87913513183594,-35.976524353027344,-66.93914794921875,Left
4241.91015625,5219,1,1764.0,1764.0,1607.0,1759.0,1753.0,729.0,1499.0,1747.0,121.87913513183594,-35.976524353027344,-66.93914794921875,Left
4233.91015625,5220,1,1751.0,1745.0,1596.0,1763.0,1737.0,936.0,1506.0,1743.0,121.87913513183594,-35.976524353027344,-66.93914794921875,Left
4235.91015625,5220,1,1754.0,1753.0,1711.0,1763.0,1737.0,2164.0,1500.0,1739.0,121.87913513183594,-35.976524353027344,-66.93914794921875,Left
4237.91015625,5220,1,1758.0,1765.0,1621.0,1759.0,1747.0,3786.0,1501.0,1740.0,121.87913513183594,-35.976524353027344,-66.93914794921875,Left
4239.91015625,5220,1,1757.0,1755.0,1691.0,1763.0,1743.0,3787.0,1501.0,1741.0,121.87913513183594,-35.976524353027344,-66.93914794921875,Left
4241.91015625,5220,1,1748.0,1757.0,1629.0,1756.0,1741.0,3791.0,1499.0,1743.0,121.87913513183594,-35.976524353027344,-66.93914794921875,Left
4237.90869140625,5221,1,1747.0,1751.0,1800.0,1759.0,1727.0,837.0,1499.0,1747.0,121.87913513183594,-35.976524353027344,-66.93914794921875,Left
4239.90869140625,5221,1,1761.0,1763.0,1946.0,1757.0,1764.0,0.0,1507.0,1747.0,121.87913513183594,-35.976524353027344,-66.93914794921875,Left
4241.90869140625,5221,1,1758.0,1769.0,1775.0,1750.0,1782.0,228.0,1501.0,1757.0,121.87913513183594,-35.976524353027344,-66.93914794921875,Left
4243.90869140625,5221,1,1750.0,1758.0,1787.0,1759.0,1750.0,524.0,1503.0,1752.0,121.87913513183594,-35.976524353027344,-66.93914794921875,Left
4245.90869140625,5221,1,1753.0,1753.0,1726.0,1757.0,1769.0,749.0,1501.0,1751.0,121.87913513183594,-35.976524353027344,-66.93914794921875,Left
4251.3203125,5222,1,1750.0,1755.0,1722.0,1759.0,1739.0,949.0,1497.0,1746.0,121.87913513183594,-35.976524353027344,-66.93914794921875,Left
4253.3203125,5222,1,1749.0,1755.0,1683.0,1757.0,1720.0,1931.0,1492.0,1735.0,121.87913513183594,-35.976524353027344,-66.93914794921875,Left
4255.3203125,5222,1,1765.0,1757.0,1724.0,1757.0,1747.0,3791.0,1503.0,1746.0,121.87913513183594,-35.976524353027344,-66.93914794921875,Left
4257.3203125,5222,1,1749.0,1749.0,1819.0,1766.0,1742.0,3793.0,1503.0,1734.0,121.87913513183594,-35.976524353027344,-66.93914794921875,Left
4259.3203125,5222,1,1746.0,1754.0,1753.0,1757.0,1746.0,3795.0,1500.0,1741.0,121.87913513183594,-35.976524353027344,-66.93914794921875,Left
4283.52197265625,5223,1,1757.0,1755.0,1708.0,1757.0,1747.0,831.0,1500.0,1739.0,121.87913513183594,-35.976524353027344,-66.93914794921875,Left
4285.52197265625,5223,1,1763.0,1757.0,1491.0,1757.0,1752.0,0.0,1500.0,1765.0,121.87913513183594,-35.976524353027344,-66.93914794921875,Left
4287.52197265625,5223,1,1757.0,1763.0,1553.0,1759.0,1753.0,253.0,1499.0,1751.0,121.87913513183594,-35.976524353027344,-66.93914794921875,Left
4289.52197265625,5223,1,1762.0,1756.0,1461.0,1757.0,1743.0,531.0,1496.0,1749.0,121.87913513183594,-35.976524353027344,-66.93914794921875,Left
4291.52197265625,5223,1,1755.0,1755.0,1707.0,1757.0,1745.0,760.0,1497.0,1745.0,121.87913513183594,-35.976524353027344,-66.93914794921875,Left
4284.53076171875,5224,1,1757.0,1751.0,1994.0,1757.0,1759.0,965.0,1494.0,1741.0,121.87913513183594,-35.976524353027344,-66.93914794921875,Left
4286.53076171875,5224,1,1759.0,1765.0,1749.0,1761.0,1755.0,1941.0,1499.0,1753.0,121.87913513183594,-35.976524353027344,-66.93914794921875,Left
4288.53076171875,5224,1,1765.0,1757.0,1559.0,1758.0,1754.0,3787.0,1501.0,1751.0,121.87913513183594,-35.976524353027344,-66.93914794921875,Left
4290.53076171875,5224,1,1755.0,1755.0,1695.0,1757.0,1747.0,3785.0,1503.0,1723.0,121.87913513183594,-35.976524353027344,-66.93914794921875,Left
4292.53076171875,5224,1,1747.0,1745.0,2123.0,1755.0,1721.0,3788.0,1500.0,1735.0,121.87913513183594,-35.976524353027344,-66.93914794921875,Left
4284.53076171875,5225,1,1747.0,1751.0,2200.0,1756.0,1741.0,907.0,1497.0,1747.0,121.87913513183594,-35.976524353027344,-66.93914794921875,Left
4286.53076171875,5225,1,1767.0,1757.0,2131.0,1757.0,1753.0,0.0,1495.0,1749.0,121.87913513183594,-35.976524353027344,-66.93914794921875,Left
4288.53076171875,5225,1,1743.0,1757.0,1999.0,1757.0,1721.0,219.0,1491.0,1726.0,121.87913513183594,-35.976524353027344,-66.93914794921875,Left
4290.53076171875,5225,1,1739.0,1754.0,1717.0,1755.0,1738.0,519.0,1493.0,1736.0,121.82090759277344,-36.0629768371582,-66.85688018798828,Left
4292.53076171875,5225,1,1757.0,1753.0,1572.0,1759.0,1753.0,747.0,1492.0,1757.0,121.82090759277344,-36.0629768371582,-66.85688018798828,Left
4285.53662109375,5226,1,1765.0,1765.0,1637.0,1759.0,1763.0,943.0,1491.0,1750.0,121.82090759277344,-36.0629768371582,-66.85688018798828,Left
4287.53662109375,5226,1,1755.0,1756.0,1695.0,1757.0,1746.0,1781.0,1491.0,1747.0,121.82090759277344,-36.0629768371582,-66.85688018798828,Left
4289.53662109375,5226,1,1752.0,1753.0,1791.0,1751.0,1739.0,3794.0,1491.0,1736.0,121.82090759277344,-36.0629768371582,-66.85688018798828,Left
4291.53662109375,5226,1,1741.0,1753.0,1679.0,1757.0,1745.0,3784.0,1495.0,1737.0,121.82090759277344,-36.0629768371582,-66.85688018798828,Left
4293.53662109375,5226,1,1757.0,1740.0,1819.0,1757.0,1755.0,3788.0,1495.0,1749.0,121.82090759277344,-36.0629768371582,-66.85688018798828,Left
4295.98486328125,5227,1,1758.0,1769.0,1915.0,1755.0,1767.0,941.0,1495.0,1763.0,121.82090759277344,-36.0629768371582,-66.85688018798828,Left
4297.98486328125,5227,1,1757.0,1761.0,1910.0,1755.0,1727.0,0.0,1496.0,1748.0,121.82090759277344,-36.0629768371582,-66.85688018798828,Left
4299.98486328125,5227,1,1741.0,1751.0,1783.0,1757.0,1737.0,205.0,1494.0,1757.0,121.82090759277344,-36.0629768371582,-66.85688018798828,Left
4301.98486328125,5227,1,1753.0,1755.0,1743.0,1757.0,1727.0,503.0,1499.0,1727.0,121.82090759277344,-36.0629768371582,-66.85688018798828,Left
4303.98486328125,5227,1,1765.0,1738.0,1648.0,1757.0,1782.0,738.0,1499.0,1749.0,121.82090759277344,-36.0629768371582,-66.85688018798828,Left
4306.54443359375,5228,1,1765.0,1767.0,1756.0,1751.0,1757.0,937.0,1497.0,1750.0,121.82090759277344,-36.0629768371582,-66.85688018798828,Left
4308.54443359375,5228,1,1757.0,1764.0,1624.0,1759.0,1747.0,1573.0,1499.0,1748.0,121.82090759277344,-36.0629768371582,-66.85688018798828,Left
4310.54443359375,5228,1,1750.0,1756.0,1656.0,1754.0,1755.0,3794.0,1500.0,1742.0,121.82090759277344,-36.0629768371582,-66.85688018798828,Left
4312.54443359375,5228,1,1756.0,1763.0,1663.0,1759.0,1743.0,3793.0,1499.0,1740.0,121.82090759277344,-36.0629768371582,-66.85688018798828,Left
4314.54443359375,5228,1,1753.0,1751.0,1787.0,1755.0,1707.0,3789.0,1499.0,1747.0,121.82090759277344,-36.0629768371582,-66.85688018798828,Left
4317.54248046875,5229,1,1759.0,1751.0,1884.0,1750.0,1741.0,915.0,1501.0,1750.0,121.82090759277344,-36.0629768371582,-66.85688018798828,Left
4319.54248046875,5229,1,1749.0,1759.0,1942.0,1754.0,1755.0,0.0,1499.0,1737.0,121.82090759277344,-36.0629768371582,-66.85688018798828,Left
4321.54248046875,5229,1,1780.0,1787.0,1790.0,1753.0,1819.0,222.0,1494.0,1753.0,121.82090759277344,-36.0629768371582,-66.85688018798828,Left
4323.54248046875,5229,1,1753.0,1759.0,1917.0,1757.0,1749.0,520.0,1496.0,1749.0,121.82090759277344,-36.0629768371582,-66.85688018798828,Left
4325.54248046875,5229,1,1751.0,1755.0,1733.0,1757.0,1720.0,747.0,1495.0,1746.0,121.82090759277344,-36.0629768371582,-66.85688018798828,Left
4325.8056640625,5230,1,1754.0,1752.0,1645.0,1755.0,1720.0,951.0,1497.0,1748.0,121.82090759277344,-36.0629768371582,-66.85688018798828,Left
4327.8056640625,5230,1,1751.0,1741.0,1575.0,1757.0,1725.0,1683.0,1496.0,1748.0,121.82090759277344,-36.0629768371582,-66.85688018798828,Left
4329.8056640625,5230,1,1763.0,1770.0,1605.0,1757.0,1759.0,3796.0,1497.0,1747.0,121.82090759277344,-36.0629768371582,-66.85688018798828,Left
4331.8056640625,5230,1,1757.0,1767.0,1517.0,1755.0,1807.0,3793.0,1496.0,1747.0,121.82090759277344,-36.0629768371582,-66.85688018798828,Left
4333.8056640625,5230,1,1747.0,1757.0,1885.0,1762.0,1738.0,3787.0,1495.0,1739.0,121.82090759277344,-36.0629768371582,-66.85688018798828,Left
4337.4072265625,5231,1,1749.0,1755.0,1941.0,1756.0,1740.0,925.0,1496.0,1748.0,121.82090759277344,-36.0629768371582,-66.85688018798828,Left
4339.4072265625,5231,1,1753.0,1764.0,1853.0,1754.0,1757.0,0.0,1497.0,1749.0,121.82090759277344,-36.0629768371582,-66.85688018798828,Left
4341.4072265625,5231,1,1751.0,1757.0,1896.0,1757.0,1737.0,250.0,1496.0,1747.0,121.82090759277344,-36.0629768371582,-66.85688018798828,Left
4343.4072265625,5231,1,1749.0,1753.0,1867.0,1757.0,1738.0,541.0,1495.0,1752.0,121.82090759277344,-36.0629768371582,-66.85688018798828,Left
4345.4072265625,5231,1,1749.0,1756.0,1766.0,1755.0,1746.0,767.0,1499.0,1749.0,121.82090759277344,-36.0629768371582,-66.85688018798828,Left
4348.96044921875,5232,1,1751.0,1754.0,1663.0,1755.0,1746.0,959.0,1491.0,1741.0,121.67247009277344,-36.02812957763672,-66.8148193359375,Left
4350.96044921875,5232,1,1753.0,1759.0,1880.0,1756.0,1748.0,1543.0,1501.0,1751.0,121.67247009277344,-36.02812957763672,-66.8148193359375,Left
4352.96044921875,5232,1,1763.0,1756.0,1875.0,1759.0,1749.0,3787.0,1499.0,1755.0,121.67247009277344,-36.02812957763672,-66.8148193359375,Left
4354.96044921875,5232,1,1763.0,1755.0,1647.0,1754.0,1751.0,3784.0,1496.0,1755.0,121.67247009277344,-36.02812957763672,-66.8148193359375,Left
4356.96044921875,5232,1,1757.0,1757.0,1661.0,1755.0,1752.0,3787.0,1495.0,1739.0,121.67247009277344,-36.02812957763672,-66.8148193359375,Left
4357.857421875,5233,1,1747.0,1765.0,1981.0,1756.0,1743.0,985.0,1497.0,1735.0,121.67247009277344,-36.02812957763672,-66.8148193359375,Left
4359.857421875,5233,1,1749.0,1755.0,1990.0,1759.0,1740.0,0.0,1495.0,1742.0,121.67247009277344,-36.02812957763672,-66.8148193359375,Left
4361.857421875,5233,1,1757.0,1755.0,1832.0,1754.0,1754.0,231.0,1497.0,1748.0,121.67247009277344,-36.02812957763672,-66.8148193359375,Left
4363.857421875,5233,1,1762.0,1754.0,1707.0,1757.0,1736.0,523.0,1497.0,1749.0,121.67247009277344,-36.02812957763672,-66.8148193359375,Left
4365.857421875,5233,1,1749.0,1757.0,1715.0,1752.0,1747.0,755.0,1496.0,1748.0,121.67247009277344,-36.02812957763672,-66.8148193359375,Left
4366.4853515625,5234,1,1752.0,1749.0,1660.0,1753.0,1747.0,953.0,1484.0,1738.0,121.67247009277344,-36.02812957763672,-66.8148193359375,Left
4368.4853515625,5234,1,1752.0,1755.0,1563.0,1757.0,1749.0,1720.0,1501.0,1743.0,121.67247009277344,-36.02812957763672,-66.8148193359375,Left
4370.4853515625,5234,1,1763.0,1759.0,1566.0,1756.0,1755.0,3788.0,1499.0,1741.0,121.67247009277344,-36.02812957763672,-66.8148193359375,Left
4372.4853515625,5234,1,1751.0,1757.0,1579.0,1756.0,1747.0,3789.0,1500.0,1737.0,121.67247009277344,-36.02812957763672,-66.8148193359375,Left
4374.4853515625,5234,1,1754.0,1752.0,1720.0,1756.0,1741.0,3789.0,1498.0,1736.0,121.67247009277344,-36.02812957763672,-66.8148193359375,Left
4405.5263671875,5235,1,1751.0,1749.0,1941.0,1756.0,1734.0,985.0,1493.0,1747.0,121.67247009277344,-36.02812957763672,-66.8148193359375,Left
4407.5263671875,5235,1,1773.0,1764.0,1891.0,1757.0,1748.0,0.0,1495.0,1747.0,121.67247009277344,-36.02812957763672,-66.8148193359375,Left
4409.5263671875,5235,1,1753.0,1753.0,1811.0,1756.0,1752.0,207.0,1493.0,1755.0,121.67247009277344,-36.02812957763672,-66.8148193359375,Left
4411.5263671875,5235,1,1773.0,1761.0,1705.0,1757.0,1765.0,505.0,1497.0,1757.0,121.67247009277344,-36.02812957763672,-66.8148193359375,Left
4413.5263671875,5235,1,1773.0,1765.0,1619.0,1755.0,1767.0,739.0,1495.0,1751.0,121.67247009277344,-36.02812957763672,-66.8148193359375,Left
4405.5263671875,5236,1,1748.0,1751.0,1465.0,1757.0,1737.0,943.0,1496.0,1749.0,121.67247009277344,-36.02812957763672,-66.8148193359375,Left
4407.5263671875,5236,1,1765.0,1754.0,1477.0,1755.0,1741.0,1382.0,1497.0,1741.0,121.67247009277344,-36.02812957763672,-66.8148193359375,Left
4409.5263671875,5236,1,1757.0,1756.0,1560.0,1753.0,1741.0,3785.0,1497.0,1739.0,121.67247009277344,-36.02812957763672,-66.8148193359375,Left
4411.5263671875,5236,1,1753.0,1747.0,1593.0,1754.0,1723.0,3789.0,1494.0,1725.0,121.67247009277344,-36.02812957763672,-66.8148193359375,Left
4413.5263671875,5236,1,1747.0,1753.0,1781.0,1754.0,1734.0,3786.0,1526.0,1723.0,121.67247009277344,-36.02812957763672,-66.8148193359375,Left
4405.5263671875,5237,1,1753.0,1765.0,1676.0,1755.0,1756.0,937.0,1575.0,1747.0,121.67247009277344,-36.02812957763672,-66.8148193359375,Left
4407.5263671875,5237,1,1757.0,1765.0,1812.0,1755.0,1754.0,0.0,1607.0,1747.0,121.67247009277344,-36.02812957763672,-66.8148193359375,Left
4409.5263671875,5237,1,1751.0,1759.0,1867.0,1757.0,1769.0,253.0,1635.0,1749.0,121.67247009277344,-36.02812957763672,-66.8148193359375,Left
4411.5263671875,5237,1,1749.0,1741.0,1875.0,1757.0,1726.0,535.0,1653.0,1749.0,121.67247009277344,-36.02812957763672,-66.8148193359375,Left
4413.5263671875,5237,1,1758.0,1765.0,1866.0,1756.0,1759.0,763.0,1673.0,1749.0,121.67247009277344,-36.02812957763672,-66.8148193359375,Left
4407.70703125,5238,1,1766.0,1741.0,1876.0,1753.0,1726.0,968.0,1678.0,1749.0,121.67247009277344,-36.02812957763672,-66.8148193359375,Left
4409.70703125,5238,1,1757.0,1752.0,1788.0,1755.0,1741.0,1205.0,1695.0,1742.0,121.67247009277344,-36.02812957763672,-66.8148193359375,Left
4411.70703125,5238,1,1763.0,1789.0,1931.0,1757.0,1770.0,3791.0,1699.0,1743.0,121.67247009277344,-36.02812957763672,-66.8148193359375,Left
4413.70703125,5238,1,1751.0,1766.0,1865.0,1755.0,1747.0,3791.0,1715.0,1739.0,121.56627655029297,-35.98728561401367,-66.71827697753906,Left
4415.70703125,5238,1,1753.0,1745.0,1767.0,1757.0,1727.0,3793.0,1721.0,1747.0,121.56627655029297,-35.98728561401367,-66.71827697753906,Left
4418.7880859375,5239,1,1741.0,1715.0,1935.0,1757.0,1716.0,942.0,1725.0,1739.0,121.56627655029297,-35.98728561401367,-66.71827697753906,Left
4420.7880859375,5239,1,1741.0,1735.0,2019.0,1757.0,1715.0,0.0,1734.0,1739.0,121.56627655029297,-35.98728561401367,-66.71827697753906,Left
4422.7880859375,5239,1,1771.0,1893.0,2044.0,1757.0,1833.0,275.0,1736.0,1756.0,121.56627655029297,-35.98728561401367,-66.71827697753906,Left
4424.7880859375,5239,1,1759.0,1749.0,1948.0,1758.0,1736.0,551.0,1739.0,1751.0,121.56627655029297,-35.98728561401367,-66.71827697753906,Left
4426.7880859375,5239,1,1781.0,1755.0,1949.0,1755.0,1757.0,782.0,1741.0,1752.0,121.56627655029297,-35.98728561401367,-66.71827697753906,Left
4455.60107421875,5240,1,1765.0,1747.0,1870.0,1755.0,1740.0,978.0,1741.0,1753.0,121.56627655029297,-35.98728561401367,-66.71827697753906,Left
4457.60107421875,5240,1,1755.0,1805.0,1699.0,1755.0,1772.0,1203.0,1743.0,1751.0,121.56627655029297,-35.98728561401367,-66.71827697753906,Left
4459.60107421875,5240,1,1747.0,1755.0,1660.0,1752.0,1742.0,3793.0,1749.0,1739.0,121.56627655029297,-35.98728561401367,-66.71827697753906,Left
4461.60107421875,5240,1,1762.0,1757.0,1832.0,1758.0,1756.0,3782.0,1747.0,1751.0,121.56627655029297,-35.98728561401367,-66.71827697753906,Left
4463.60107421875,5240,1,1755.0,1755.0,1887.0,1757.0,1741.0,3786.0,1751.0,1743.0,121.56627655029297,-35.98728561401367,-66.71827697753906,Left
4455.60107421875,5241,1,1746.0,1723.0,1867.0,1756.0,1739.0,920.0,1748.0,1739.0,121.56627655029297,-35.98728561401367,-66.71827697753906,Left
4457.60107421875,5241,1,1755.0,1743.0,1840.0,1757.0,1737.0,0.0,1752.0,1736.0,121.56627655029297,-35.98728561401367,-66.71827697753906,Left
4459.60107421875,5241,1,1755.0,1755.0,1707.0,1757.0,1751.0,270.0,1753.0,1746.0,121.56627655029297,-35.98728561401367,-66.71827697753906,Left
4461.60107421875,5241,1,1757.0,1775.0,1789.0,1757.0,1757.0,557.0,1751.0,1753.0,121.56627655029297,-35.98728561401367,-66.71827697753906,Left
4463.60107421875,5241,1,1753.0,1759.0,1817.0,1686.0,1737.0,781.0,1752.0,1747.0,121.56627655029297,-35.98728561401367,-66.71827697753906,Left
4455.60107421875,5242,1,1752.0,1753.0,1707.0,1768.0,1745.0,981.0,1753.0,1746.0,121.56627655029297,-35.98728561401367,-66.71827697753906,Left
4457.60107421875,5242,1,1755.0,1769.0,1696.0,1641.0,1755.0,1245.0,1755.0,1743.0,121.56627655029297,-35.98728561401367,-66.71827697753906,Left
4459.60107421875,5242,1,1757.0,1753.0,1679.0,1515.0,1745.0,3788.0,1754.0,1743.0,121.56627655029297,-35.98728561401367,-66.71827697753906,Left
4461.60107421875,5242,1,1759.0,1755.0,1563.0,1607.0,1747.0,3783.0,1755.0,1743.0,121.56627655029297,-35.98728561401367,-66.71827697753906,Left
4463.60107421875,5242,1,1752.0,1753.0,1878.0,1849.0,1755.0,3790.0,1753.0,1743.0,121.56627655029297,-35.98728561401367,-66.71827697753906,Left
4457.84326171875,5243,1,1754.0,1756.0,1868.0,1853.0,1741.0,1064.0,1755.0,1750.0,121.56627655029297,-35.98728561401367,-66.71827697753906,Left
4459.84326171875,5243,1,1757.0,1758.0,1845.0,1792.0,1745.0,0.0,1755.0,1748.0,121.56627655029297,-35.98728561401367,-66.71827697753906,Left
4461.84326171875,5243,1,1753.0,1690.0,1823.0,1773.0,1723.0,235.0,1755.0,1753.0,121.56627655029297,-35.98728561401367,-66.71827697753906,Left
4463.84326171875,5243,1,1765.0,1677.0,1734.0,1719.0,1719.0,523.0,1752.0,1735.0,121.56627655029297,-35.98728561401367,-66.71827697753906,Left
4465.84326171875,5243,1,1764.0,1693.0,1749.0,1661.0,1718.0,755.0,1757.0,1743.0,121.56627655029297,-35.98728561401367,-66.71827697753906,Left
4466.77734375,5244,1,1741.0,1709.0,1811.0,1594.0,1723.0,955.0,1753.0,1743.0,121.56627655029297,-35.98728561401367,-66.71827697753906,Left
4468.77734375,5244,1,1753.0,1755.0,1691.0,1689.0,1757.0,1211.0,1752.0,1747.0,121.56627655029297,-35.98728561401367,-66.71827697753906,Left
4470.77734375,5244,1,1766.0,1747.0,1701.0,1624.0,1747.0,3788.0,1749.0,1745.0,121.56627655029297,-35.98728561401367,-66.71827697753906,Left
4472.77734375,5244,1,1757.0,1758.0,1597.0,1587.0,1753.0,3793.0,1753.0,1739.0,121.56627655029297,-35.98728561401367,-66.71827697753906,Left
4474.77734375,5244,1,1757.0,1768.0,1507.0,1607.0,1759.0,3790.0,1755.0,1745.0,121.56627655029297,-35.98728561401367,-66.71827697753906,Left
4476.46484375,5245,1,1748.0,1752.0,1515.0,1758.0,1747.0,1103.0,1754.0,1749.0,121.56627655029297,-35.98728561401367,-66.71827697753906,Left
4478.46484375,5245,1,1763.0,1773.0,1572.0,1703.0,1762.0,0.0,1755.0,1762.0,121.3668441772461,-35.988162994384766,-66.56848907470703,Left
4480.46484375,5245,1,1775.0,1789.0,1500.0,1656.0,1779.0,209.0,1756.0,1763.0,121.3668441772461,-35.988162994384766,-66.56848907470703,Left
4482.46484375,5245,1,1755.0,1769.0,1422.0,1605.0,1751.0,507.0,1755.0,1747.0,121.3668441772461,-35.988162994384766,-66.56848907470703,Left
4484.46484375,5245,1,1747.0,1767.0,1523.0,1622.0,1754.0,742.0,1756.0,1741.0,121.3668441772461,-35.988162994384766,-66.56848907470703,Left
4489.197265625,5246,1,1752.0,1781.0,1469.0,1579.0,1763.0,947.0,1753.0,1745.0,121.3668441772461,-35.988162994384766,-66.56848907470703,Left
4491.197265625,5246,1,1748.0,1763.0,1439.0,1477.0,1734.0,1129.0,1757.0,1733.0,121.3668441772461,-35.988162994384766,-66.56848907470703,Left
4493.197265625,5246,1,1753.0,1759.0,1479.0,1531.0,1734.0,3775.0,1755.0,1735.0,121.3668441772461,-35.988162994384766,-66.56848907470703,Left
4495.197265625,5246,1,1757.0,1757.0,1621.0,1447.0,1741.0,3795.0,1755.0,1747.0,121.3668441772461,-35.988162994384766,-66.56848907470703,Left
4497.197265625,5246,1,1769.0,1764.0,1819.0,1679.0,1791.0,3790.0,1756.0,1755.0,121.3668441772461,-35.988162994384766,-66.56848907470703,Left
4519.22314453125,5247,1,1749.0,1769.0,1832.0,1630.0,1743.0,1016.0,1755.0,1737.0,121.3668441772461,-35.988162994384766,-66.56848907470703,Left
4521.22314453125,5247,1,1755.0,1770.0,1813.0,1651.0,1751.0,0.0,1763.0,1749.0,121.3668441772461,-35.988162994384766,-66.56848907470703,Left
4523.22314453125,5247,1,1755.0,1763.0,1700.0,1508.0,1756.0,245.0,1753.0,1753.0,121.3668441772461,-35.988162994384766,-66.56848907470703,Left
4525.22314453125,5247,1,1757.0,1767.0,1711.0,1542.0,1753.0,538.0,1755.0,1751.0,121.3668441772461,-35.988162994384766,-66.56848907470703,Left
4527.22314453125,5247,1,1753.0,1763.0,1673.0,1517.0,1749.0,757.0,1752.0,1751.0,121.3668441772461,-35.988162994384766,-66.56848907470703,Left
4519.22314453125,5248,1,1752.0,1764.0,1681.0,1464.0,1751.0,955.0,1753.0,1753.0,121.3668441772461,-35.988162994384766,-66.56848907470703,Left
4521.22314453125,5248,1,1751.0,1759.0,1621.0,1496.0,1741.0,1179.0,1756.0,1741.0,121.3668441772461,-35.988162994384766,-66.56848907470703,Left
4523.22314453125,5248,1,1749.0,1752.0,1512.0,1657.0,1723.0,3794.0,1757.0,1746.0,121.3668441772461,-35.988162994384766,-66.56848907470703,Left
4525.22314453125,5248,1,1759.0,1765.0,1763.0,1590.0,1763.0,3789.0,1755.0,1735.0,121.3668441772461,-35.988162994384766,-66.56848907470703,Left
4527.22314453125,5248,1,1759.0,1769.0,2011.0,1673.0,1770.0,3793.0,1755.0,1737.0,121.3668441772461,-35.988162994384766,-66.56848907470703,Left
4521.23291015625,5249,1,1763.0,1763.0,2009.0,1737.0,1739.0,1156.0,1750.0,1739.0,121.3668441772461,-35.988162994384766,-66.56848907470703,Left
4523.23291015625,5249,1,1756.0,1765.0,1943.0,1756.0,1753.0,0.0,1757.0,1753.0,121.3668441772461,-35.988162994384766,-66.56848907470703,Left
4525.23291015625,5249,1,1755.0,1759.0,2013.0,1855.0,1751.0,259.0,1756.0,1751.0,121.3668441772461,-35.988162994384766,-66.56848907470703,Left
4527.23291015625,5249,1,1748.0,1758.0,1938.0,1803.0,1746.0,541.0,1756.0,1741.0,121.3668441772461,-35.988162994384766,-66.56848907470703,Left
4529.23291015625,5249,1,1751.0,1758.0,1789.0,1723.0,1752.0,775.0,1754.0,1749.0,121.3668441772461,-35.988162994384766,-66.56848907470703,Left
4526.673828125,5250,1,1757.0,1757.0,1644.0,1704.0,1749.0,968.0,1755.0,1745.0,121.3668441772461,-35.988162994384766,-66.56848907470703,Left
4528.673828125,5250,1,1757.0,1753.0,1785.0,1640.0,1738.0,1105.0,1757.0,1741.0,121.3668441772461,-35.988162994384766,-66.56848907470703,Left
4530.673828125,5250,1,1753.0,1755.0,1607.0,1517.0,1741.0,3787.0,1757.0,1736.0,121.3668441772461,-35.988162994384766,-66.56848907470703,Left
4532.673828125,5250,1,1755.0,1755.0,1847.0,1516.0,1741.0,3789.0,1755.0,1743.0,121.3668441772461,-35.988162994384766,-66.56848907470703,Left
4534.673828125,5250,1,1757.0,1754.0,1919.0,1711.0,1743.0,3795.0,1743.0,1743.0,121.3668441772461,-35.988162994384766,-66.56848907470703,Left
4536.607421875,5251,1,1763.0,1767.0,1940.0,1812.0,1753.0,1055.0,1757.0,1751.0,121.3668441772461,-35.988162994384766,-66.56848907470703,Left
4538.607421875,5251,1,1753.0,1752.0,1789.0,1863.0,1738.0,0.0,1755.0,1751.0,121.3668441772461,-35.988162994384766,-66.56848907470703,Left
4540.607421875,5251,1,1753.0,1759.0,1763.0,1832.0,1749.0,250.0,1749.0,1753.0,121.40184783935547,-35.87776565551758,-66.48590087890625,Left
4542.607421875,5251,1,1752.0,1758.0,1757.0,1781.0,1751.0,540.0,1757.0,1742.0,121.40184783935547,-35.87776565551758,-66.48590087890625,Left
4544.607421875,5251,1,1757.0,1763.0,1721.0,1663.0,1741.0,767.0,1756.0,1749.0,121.40184783935547,-35.87776565551758,-66.48590087890625,Left
4547.724609375,5252,1,1753.0,1755.0,1582.0,1587.0,1738.0,965.0,1756.0,1738.0,121.40184783935547,-35.87776565551758,-66.48590087890625,Left
4549.724609375,5252,1,1755.0,1757.0,1803.0,1463.0,1751.0,1101.0,1757.0,1753.0,121.40184783935547,-35.87776565551758,-66.48590087890625,Left
4551.724609375,5252,1,1755.0,1763.0,1753.0,1467.0,1755.0,3789.0,1757.0,1741.0,121.40184783935547,-35.87776565551758,-66.48590087890625,Left
4553.724609375,5252,1,1752.0,1757.0,1763.0,1595.0,1753.0,3789.0,1756.0,1741.0,121.40184783935547,-35.87776565551758,-66.48590087890625,Left
4555.724609375,5252,1,1755.0,1759.0,1817.0,1695.0,1755.0,3790.0,1755.0,1739.0,121.40184783935547,-35.87776565551758,-66.48590087890625,Left
4558.2734375,5253,1,1753.0,1763.0,1911.0,1796.0,1741.0,1015.0,1749.0,1736.0,121.40184783935547,-35.87776565551758,-66.48590087890625,Left
4560.2734375,5253,1,1755.0,1754.0,1891.0,1789.0,1745.0,0.0,1755.0,1747.0,121.40184783935547,-35.87776565551758,-66.48590087890625,Left
4562.2734375,5253,1,1756.0,1762.0,1897.0,1787.0,1754.0,287.0,1757.0,1750.0,121.40184783935547,-35.87776565551758,-66.48590087890625,Left
4564.2734375,5253,1,1751.0,1753.0,1816.0,1691.0,1737.0,555.0,1756.0,1751.0,121.40184783935547,-35.87776565551758,-66.48590087890625,Left
4566.2734375,5253,1,1767.0,1763.0,1894.0,1627.0,1755.0,787.0,1756.0,1757.0,121.40184783935547,-35.87776565551758,-66.48590087890625,Left
4566.0869140625,5254,1,1763.0,1768.0,1693.0,1530.0,1769.0,983.0,1755.0,1757.0,121.40184783935547,-35.87776565551758,-66.48590087890625,Left
4568.0869140625,5254,1,1759.0,1763.0,1791.0,1544.0,1749.0,1129.0,1757.0,1748.0,121.40184783935547,-35.87776565551758,-66.48590087890625,Left
4570.0869140625,5254,1,1753.0,1752.0,1831.0,1661.0,1745.0,3775.0,1757.0,1748.0,121.40184783935547,-35.87776565551758,-66.48590087890625,Left
4572.0869140625,5254,1,1752.0,1756.0,1881.0,1619.0,1747.0,3787.0,1755.0,1746.0,121.40184783935547,-35.87776565551758,-66.48590087890625,Left
4574.0869140625,5254,1,1757.0,1757.0,1925.0,1544.0,1746.0,3789.0,1756.0,1727.0,121.40184783935547,-35.87776565551758,-66.48590087890625,Left
4576.5234375,5255,1,1750.0,1753.0,1873.0,1544.0,1736.0,1065.0,1756.0,1735.0,121.40184783935547,-35.87776565551758,-66.48590087890625,Left
4578.5234375,5255,1,1750.0,1751.0,1979.0,1725.0,1751.0,8.0,1757.0,1746.0,121.40184783935547,-35.87776565551758,-66.48590087890625,Left
4580.5234375,5255,1,1757.0,1753.0,1752.0,1613.0,1751.0,279.0,1755.0,1751.0,121.40184783935547,-35.87776565551758,-66.48590087890625,Left
4582.5234375,5255,1,1753.0,1759.0,1541.0,1669.0,1743.0,553.0,1755.0,1751.0,121.40184783935547,-35.87776565551758,-66.48590087890625,Left
4584.5234375,5255,1,1753.0,1746.0,1309.0,1613.0,1739.0,779.0,1756.0,1735.0,121.40184783935547,-35.87776565551758,-66.48590087890625,Left
4586.294921875,5256,1,1755.0,1768.0,1421.0,1661.0,1767.0,979.0,1755.0,1749.0,121.40184783935547,-35.87776565551758,-66.48590087890625,Left
4588.294921875,5256,1,1749.0,1759.0,1531.0,1611.0,1727.0,1113.0,1753.0,1741.0,121.40184783935547,-35.87776565551758,-66.48590087890625,Left
4590.294921875,5256,1,1753.0,1753.0,1555.0,1651.0,1742.0,3789.0,1755.0,1742.0,121.40184783935547,-35.87776565551758,-66.48590087890625,Left
4592.294921875,5256,1,1750.0,1741.0,1637.0,1784.0,1737.0,3788.0,1757.0,1738.0,121.40184783935547,-35.87776565551758,-66.48590087890625,Left
4594.294921875,5256,1,1771.0,1764.0,1627.0,1726.0,1774.0,3787.0,1755.0,1751.0,121.40184783935547,-35.87776565551758,-66.48590087890625,Left
4597.09765625,5257,1,1763.0,1757.0,1564.0,1819.0,1753.0,970.0,1755.0,1752.0,121.40184783935547,-35.87776565551758,-66.48590087890625,Left
4599.09765625,5257,1,1752.0,1759.0,1634.0,1791.0,1749.0,25.0,1755.0,1748.0,121.40184783935547,-35.87776565551758,-66.48590087890625,Left
4601.09765625,5257,1,1753.0,1763.0,1592.0,1854.0,1749.0,311.0,1753.0,1747.0,121.40184783935547,-35.87776565551758,-66.48590087890625,Left
4603.09765625,5257,1,1757.0,1757.0,1531.0,1695.0,1751.0,575.0,1755.0,1747.0,121.40184783935547,-35.87776565551758,-66.48590087890625,Left
4605.09765625,5257,1,1751.0,1763.0,1605.0,1769.0,1755.0,799.0,1757.0,1749.0,121.40184783935547,-35.87776565551758,-66.48590087890625,Left
4609.556640625,5258,1,1753.0,1757.0,1636.0,1753.0,1739.0,993.0,1755.0,1742.0,121.1840591430664,-35.90258026123047,-66.32545471191406,Left
4611.556640625,5258,1,1746.0,1759.0,1672.0,1701.0,1737.0,1127.0,1757.0,1739.0,121.1840591430664,-35.90258026123047,-66.32545471191406,Left
4613.556640625,5258,1,1749.0,1753.0,1627.0,1710.0,1751.0,3785.0,1755.0,1741.0,121.1840591430664,-35.90258026123047,-66.32545471191406,Left
4615.556640625,5258,1,1775.0,1763.0,1471.0,1707.0,1763.0,3787.0,1757.0,1741.0,121.1840591430664,-35.90258026123047,-66.32545471191406,Left
4617.556640625,5258,1,1759.0,1757.0,1621.0,1583.0,1736.0,3789.0,1755.0,1747.0,121.1840591430664,-35.90258026123047,-66.32545471191406,Left
4638.36328125,5259,1,1747.0,1753.0,1641.0,1528.0,1749.0,983.0,1748.0,1737.0,121.1840591430664,-35.90258026123047,-66.32545471191406,Left
4640.36328125,5259,1,1751.0,1754.0,1833.0,1528.0,1743.0,7.0,1757.0,1751.0,121.1840591430664,-35.90258026123047,-66.32545471191406,Left
4642.36328125,5259,1,1757.0,1757.0,1684.0,1566.0,1736.0,301.0,1757.0,1748.0,121.1840591430664,-35.90258026123047,-66.32545471191406,Left
4644.36328125,5259,1,1751.0,1763.0,1710.0,1499.0,1747.0,567.0,1757.0,1746.0,121.1840591430664,-35.90258026123047,-66.32545471191406,Left
4646.36328125,5259,1,1757.0,1765.0,1833.0,1519.0,1752.0,789.0,1756.0,1753.0,121.1840591430664,-35.90258026123047,-66.32545471191406,Left
4639.3896484375,5260,1,1737.0,1751.0,1891.0,1683.0,1747.0,983.0,1740.0,1735.0,121.1840591430664,-35.90258026123047,-66.32545471191406,Left
4641.3896484375,5260,1,1763.0,1773.0,1833.0,1669.0,1765.0,1125.0,1755.0,1749.0,121.1840591430664,-35.90258026123047,-66.32545471191406,Left
4643.3896484375,5260,1,1757.0,1762.0,1771.0,1619.0,1753.0,3791.0,1755.0,1743.0,121.1840591430664,-35.90258026123047,-66.32545471191406,Left
4645.3896484375,5260,1,1762.0,1754.0,1799.0,1743.0,1747.0,3793.0,1756.0,1749.0,121.1840591430664,-35.90258026123047,-66.32545471191406,Left
4647.3896484375,5260,1,1757.0,1757.0,2059.0,1865.0,1791.0,3791.0,1754.0,1748.0,121.1840591430664,-35.90258026123047,-66.32545471191406,Left
4639.3896484375,5261,1,1753.0,1753.0,2072.0,1775.0,1739.0,1052.0,1757.0,1739.0,121.1840591430664,-35.90258026123047,-66.32545471191406,Left
4641.3896484375,5261,1,1755.0,1749.0,2015.0,1591.0,1743.0,33.0,1756.0,1749.0,121.1840591430664,-35.90258026123047,-66.32545471191406,Left
4643.3896484375,5261,1,1749.0,1759.0,1845.0,1741.0,1749.0,299.0,1757.0,1751.0,121.1840591430664,-35.90258026123047,-66.32545471191406,Left
4645.3896484375,5261,1,1755.0,1757.0,1719.0,1737.0,1751.0,568.0,1757.0,1751.0,121.1840591430664,-35.90258026123047,-66.32545471191406,Left
4647.3896484375,5261,1,1771.0,1763.0,1775.0,1790.0,1762.0,794.0,1756.0,1757.0,121.1840591430664,-35.90258026123047,-66.32545471191406,Left
4647.55517578125,5262,1,1767.0,1757.0,1865.0,1753.0,1742.0,989.0,1757.0,1743.0,121.1840591430664,-35.90258026123047,-66.32545471191406,Left
4649.55517578125,5262,1,1747.0,1761.0,1772.0,1687.0,1748.0,1116.0,1755.0,1736.0,121.1840591430664,-35.90258026123047,-66.32545471191406,Left
4651.55517578125,5262,1,1757.0,1753.0,1583.0,1673.0,1737.0,3791.0,1757.0,1737.0,121.1840591430664,-35.90258026123047,-66.32545471191406,Left
4653.55517578125,5262,1,1752.0,1755.0,1661.0,1675.0,1748.0,3789.0,1756.0,1743.0,121.1840591430664,-35.90258026123047,-66.32545471191406,Left
4655.55517578125,5262,1,1747.0,1753.0,1823.0,1647.0,1750.0,3787.0,1756.0,1741.0,121.1840591430664,-35.90258026123047,-66.32545471191406,Left
4656.490234375,5263,1,1763.0,1765.0,1769.0,1803.0,1753.0,1101.0,1755.0,1740.0,121.1840591430664,-35.90258026123047,-66.32545471191406,Left
4658.490234375,5263,1,1755.0,1758.0,1863.0,1941.0,1755.0,60.0,1758.0,1751.0,121.1840591430664,-35.90258026123047,-66.32545471191406,Left
4660.490234375,5263,1,1753.0,1756.0,1695.0,1980.0,1747.0,319.0,1757.0,1749.0,121.1840591430664,-35.90258026123047,-66.32545471191406,Left
4662.490234375,5263,1,1749.0,1757.0,1670.0,1976.0,1741.0,585.0,1759.0,1743.0,121.1840591430664,-35.90258026123047,-66.32545471191406,Left
4664.490234375,5263,1,1762.0,1756.0,1689.0,1802.0,1743.0,805.0,1755.0,1755.0,121.1840591430664,-35.90258026123047,-66.32545471191406,Left
4669.4326171875,5264,1,1755.0,1757.0,1631.0,1704.0,1747.0,997.0,1756.0,1755.0,121.1840591430664,-35.90258026123047,-66.32545471191406,Left
4671.4326171875,5264,1,1758.0,1764.0,1843.0,1641.0,1743.0,1129.0,1755.0,1743.0,121.1840591430664,-35.90258026123047,-66.32545471191406,Left
4673.4326171875,5264,1,1753.0,1749.0,1805.0,1481.0,1737.0,3795.0,1757.0,1739.0,121.39212036132812,-35.85453796386719,-66.22012329101562,Left
4675.4326171875,5264,1,1758.0,1762.0,1963.0,1631.0,1765.0,3787.0,1755.0,1742.0,121.39212036132812,-35.85453796386719,-66.22012329101562,Left
4677.4326171875,5264,1,1745.0,1753.0,1893.0,1672.0,1749.0,3789.0,1751.0,1738.0,121.39212036132812,-35.85453796386719,-66.22012329101562,Left
4677.7578125,5265,1,1753.0,1747.0,2103.0,1747.0,1751.0,1046.0,1757.0,1745.0,121.39212036132812,-35.85453796386719,-66.22012329101562,Left
4679.7578125,5265,1,1757.0,1755.0,2127.0,1823.0,1757.0,87.0,1757.0,1740.0,121.39212036132812,-35.85453796386719,-66.22012329101562,Left
4681.7578125,5265,1,1757.0,1753.0,2132.0,1774.0,1742.0,331.0,1756.0,1748.0,121.39212036132812,-35.85453796386719,-66.22012329101562,Left
4683.7578125,5265,1,1753.0,1755.0,2075.0,1774.0,1747.0,601.0,1757.0,1747.0,121.39212036132812,-35.85453796386719,-66.22012329101562,Left
4685.7578125,5265,1,1757.0,1757.0,2007.0,1687.0,1752.0,819.0,1758.0,1752.0,121.39212036132812,-35.85453796386719,-66.22012329101562,Left
4685.75341796875,5266,1,1753.0,1743.0,1931.0,1643.0,1749.0,1003.0,1753.0,1747.0,121.39212036132812,-35.85453796386719,-66.22012329101562,Left
4687.75341796875,5266,1,1761.0,1762.0,1733.0,1625.0,1751.0,1135.0,1757.0,1752.0,121.39212036132812,-35.85453796386719,-66.22012329101562,Left
4689.75341796875,5266,1,1751.0,1755.0,1689.0,1669.0,1735.0,3791.0,1756.0,1735.0,121.39212036132812,-35.85453796386719,-66.22012329101562,Left
4691.75341796875,5266,1,1756.0,1763.0,1651.0,1507.0,1749.0,3787.0,1756.0,1741.0,121.39212036132812,-35.85453796386719,-66.22012329101562,Left
4693.75341796875,5266,1,1753.0,1757.0,1677.0,1581.0,1749.0,3791.0,1755.0,1739.0,121.39212036132812,-35.85453796386719,-66.22012329101562,Left
4704.06689453125,5267,1,1751.0,1747.0,1771.0,1605.0,1763.0,1260.0,1756.0,1753.0,121.39212036132812,-35.85453796386719,-66.22012329101562,Left
4706.06689453125,5267,1,1768.0,1763.0,1720.0,1694.0,1758.0,92.0,1757.0,1753.0,121.39212036132812,-35.85453796386719,-66.22012329101562,Left
4708.06689453125,5267,1,1757.0,1757.0,1723.0,1738.0,1747.0,252.0,1757.0,1748.0,121.39212036132812,-35.85453796386719,-66.22012329101562,Left
4710.06689453125,5267,1,1769.0,1755.0,1455.0,1821.0,1745.0,541.0,1758.0,1749.0,121.39212036132812,-35.85453796386719,-66.22012329101562,Left
4712.06689453125,5267,1,1753.0,1765.0,1486.0,1809.0,1741.0,763.0,1758.0,1750.0,121.39212036132812,-35.85453796386719,-66.22012329101562,Left
4711.47314453125,5268,1,1756.0,1753.0,1357.0,1781.0,1751.0,967.0,1757.0,1743.0,121.39212036132812,-35.85453796386719,-66.22012329101562,Left
4713.47314453125,5268,1,1743.0,1755.0,1692.0,1559.0,1749.0,1109.0,1756.0,1741.0,121.39212036132812,-35.85453796386719,-66.22012329101562,Left
4715.47314453125,5268,1,1757.0,1763.0,1628.0,1599.0,1755.0,3789.0,1755.0,1747.0,121.39212036132812,-35.85453796386719,-66.22012329101562,Left
4717.47314453125,5268,1,1765.0,1762.0,1615.0,1559.0,1747.0,3791.0,1755.0,1749.0,121.39212036132812,-35.85453796386719,-66.22012329101562,Left
4719.47314453125,5268,1,1767.0,1757.0,1629.0,1651.0,1752.0,3790.0,1759.0,1743.0,121.39212036132812,-35.85453796386719,-66.22012329101562,Left
4718.4765625,5269,1,1749.0,1755.0,1711.0,1733.0,1741.0,1279.0,1755.0,1737.0,121.39212036132812,-35.85453796386719,-66.22012329101562,Left
4720.4765625,5269,1,1755.0,1759.0,1752.0,1789.0,1743.0,53.0,1756.0,1749.0,121.39212036132812,-35.85453796386719,-66.22012329101562,Left
4722.4765625,5269,1,1751.0,1758.0,1799.0,1933.0,1750.0,219.0,1755.0,1749.0,121.39212036132812,-35.85453796386719,-66.22012329101562,Left
4724.4765625,5269,1,1755.0,1763.0,1799.0,1898.0,1763.0,507.0,1757.0,1751.0,121.39212036132812,-35.85453796386719,-66.22012329101562,Left
4726.4765625,5269,1,1756.0,1755.0,1881.0,1965.0,1755.0,747.0,1756.0,1755.0,121.39212036132812,-35.85453796386719,-66.22012329101562,Left
4729.0361328125,5270,1,1749.0,1752.0,1753.0,1918.0,1739.0,954.0,1751.0,1712.0,121.39212036132812,-35.85453796386719,-66.22012329101562,Left
4731.0361328125,5270,1,1733.0,1756.0,1737.0,1867.0,1689.0,1095.0,1755.0,1736.0,121.39212036132812,-35.85453796386719,-66.22012329101562,Left
4733.0361328125,5270,1,1747.0,1747.0,1595.0,1742.0,1735.0,3787.0,1754.0,1747.0,121.39212036132812,-35.85453796386719,-66.22012329101562,Left
4735.0361328125,5270,1,1765.0,1756.0,1499.0,1807.0,1751.0,3789.0,1755.0,1751.0,121.39212036132812,-35.85453796386719,-66.22012329101562,Left
4737.0361328125,5270,1,1781.0,1773.0,1733.0,1709.0,1765.0,3793.0,1757.0,1749.0,121.10591888427734,-35.90265655517578,-66.09832000732422,Left
4755.23876953125,5271,1,1757.0,1753.0,1951.0,1771.0,1751.0,1209.0,1759.0,1753.0,121.10591888427734,-35.90265655517578,-66.09832000732422,Left
4757.23876953125,5271,1,1763.0,1755.0,1895.0,1691.0,1753.0,59.0,1757.0,1753.0,121.10591888427734,-35.90265655517578,-66.09832000732422,Left
4759.23876953125,5271,1,1760.0,1758.0,1949.0,1674.0,1752.0,274.0,1755.0,1749.0,121.10591888427734,-35.90265655517578,-66.09832000732422,Left
4761.23876953125,5271,1,1755.0,1756.0,1980.0,1660.0,1747.0,551.0,1759.0,1747.0,121.10591888427734,-35.90265655517578,-66.09832000732422,Left
4763.23876953125,5271,1,1751.0,1751.0,1788.0,1681.0,1750.0,776.0,1763.0,1747.0,121.10591888427734,-35.90265655517578,-66.09832000732422,Left
4755.23876953125,5272,1,1747.0,1754.0,1723.0,1661.0,1741.0,973.0,1755.0,1741.0,121.10591888427734,-35.90265655517578,-66.09832000732422,Left
4757.23876953125,5272,1,1753.0,1755.0,1805.0,1750.0,1746.0,1111.0,1757.0,1747.0,121.10591888427734,-35.90265655517578,-66.09832000732422,Left
4759.23876953125,5272,1,1747.0,1747.0,1788.0,1765.0,1747.0,3772.0,1755.0,1747.0,121.10591888427734,-35.90265655517578,-66.09832000732422,Left
4761.23876953125,5272,1,1753.0,1755.0,1645.0,1555.0,1743.0,3787.0,1757.0,1742.0,121.10591888427734,-35.90265655517578,-66.09832000732422,Left
4763.23876953125,5272,1,1755.0,1756.0,1647.0,1627.0,1747.0,3789.0,1757.0,1739.0,121.10591888427734,-35.90265655517578,-66.09832000732422,Left
4759.23828125,5273,1,1753.0,1755.0,1763.0,1767.0,1750.0,1340.0,1756.0,1749.0,121.10591888427734,-35.90265655517578,-66.09832000732422,Left
4761.23828125,5273,1,1749.0,1757.0,1839.0,1752.0,1753.0,101.0,1759.0,1741.0,121.10591888427734,-35.90265655517578,-66.09832000732422,Left
4763.23828125,5273,1,1757.0,1763.0,1915.0,1705.0,1755.0,238.0,1757.0,1752.0,121.10591888427734,-35.90265655517578,-66.09832000732422,Left
4765.23828125,5273,1,1754.0,1753.0,1899.0,1783.0,1743.0,521.0,1757.0,1747.0,121.10591888427734,-35.90265655517578,-66.09832000732422,Left
4767.23828125,5273,1,1758.0,1765.0,1764.0,1757.0,1745.0,752.0,1759.0,1753.0,121.10591888427734,-35.90265655517578,-66.09832000732422,Left
4770.5146484375,5274,1,1753.0,1753.0,1974.0,1621.0,1752.0,955.0,1757.0,1747.0,121.10591888427734,-35.90265655517578,-66.09832000732422,Left
4772.5146484375,5274,1,1735.0,1754.0,1844.0,1449.0,1751.0,1095.0,1755.0,1749.0,121.10591888427734,-35.90265655517578,-66.09832000732422,Left
4774.5146484375,5274,1,1757.0,1759.0,1567.0,1463.0,1747.0,3789.0,1757.0,1747.0,121.10591888427734,-35.90265655517578,-66.09832000732422,Left
4776.5146484375,5274,1,1754.0,1752.0,1759.0,1499.0,1738.0,3788.0,1757.0,1741.0,121.10591888427734,-35.90265655517578,-66.09832000732422,Left
4778.5146484375,5274,1,1756.0,1751.0,1911.0,1669.0,1741.0,3795.0,1757.0,1747.0,121.10591888427734,-35.90265655517578,-66.09832000732422,Left
4775.62939453125,5275,1,1747.0,1763.0,1879.0,1791.0,1735.0,1357.0,1756.0,1745.0,121.10591888427734,-35.90265655517578,-66.09832000732422,Left
4777.62939453125,5275,1,1779.0,1772.0,1880.0,1770.0,1784.0,159.0,1758.0,1750.0,121.10591888427734,-35.90265655517578,-66.09832000732422,Left
4779.62939453125,5275,1,1743.0,1766.0,1863.0,1671.0,1748.0,249.0,1755.0,1747.0,121.10591888427734,-35.90265655517578,-66.09832000732422,Left
4781.62939453125,5275,1,1770.0,1763.0,1883.0,1615.0,1754.0,530.0,1759.0,1755.0,121.10591888427734,-35.90265655517578,-66.09832000732422,Left
4783.62939453125,5275,1,1756.0,1759.0,1741.0,1566.0,1737.0,759.0,1757.0,1743.0,121.10591888427734,-35.90265655517578,-66.09832000732422,Left
4793.6796875,5276,1,1764.0,1754.0,1555.0,1622.0,1735.0,959.0,1755.0,1752.0,121.10591888427734,-35.90265655517578,-66.09832000732422,Left
4795.6796875,5276,1,1764.0,1752.0,1563.0,1595.0,1722.0,1098.0,1756.0,1749.0,121.10591888427734,-35.90265655517578,-66.09832000732422,Left
4797.6796875,5276,1,1757.0,1772.0,1446.0,1577.0,1754.0,3791.0,1757.0,1739.0,121.10591888427734,-35.90265655517578,-66.09832000732422,Left
4799.6796875,5276,1,1765.0,1780.0,1389.0,1628.0,1771.0,3789.0,1757.0,1745.0,121.10591888427734,-35.90265655517578,-66.09832000732422,Left
4801.6796875,5276,1,1763.0,1742.0,1685.0,1652.0,1747.0,3794.0,1753.0,1735.0,121.10591888427734,-35.90265655517578,-66.09832000732422,Left
4798.1962890625,5277,1,1753.0,1762.0,1801.0,1815.0,1749.0,1226.0,1757.0,1739.0,121.10591888427734,-35.90265655517578,-66.09832000732422,Left
4800.1962890625,5277,1,1756.0,1753.0,1617.0,1912.0,1739.0,133.0,1765.0,1741.0,121.10591888427734,-35.90265655517578,-66.09832000732422,Left
4802.1962890625,5277,1,1756.0,1755.0,1789.0,1865.0,1749.0,263.0,1757.0,1755.0,120.9415283203125,-35.8078727722168,-66.10956573486328,Left
4804.1962890625,5277,1,1757.0,1763.0,1577.0,1849.0,1743.0,543.0,1754.0,1752.0,120.9415283203125,-35.8078727722168,-66.10956573486328,Left
4806.1962890625,5277,1,1755.0,1751.0,1595.0,1718.0,1739.0,767.0,1756.0,1748.0,120.9415283203125,-35.8078727722168,-66.10956573486328,Left
4814.9248046875,5278,1,1763.0,1772.0,1525.0,1653.0,1763.0,975.0,1755.0,1737.0,120.9415283203125,-35.8078727722168,-66.10956573486328,Left
4816.9248046875,5278,1,1759.0,1768.0,1570.0,1724.0,1751.0,1111.0,1755.0,1747.0,120.9415283203125,-35.8078727722168,-66.10956573486328,Left
4818.9248046875,5278,1,1767.0,1765.0,1565.0,1629.0,1757.0,3775.0,1757.0,1751.0,120.9415283203125,-35.8078727722168,-66.10956573486328,Left
4820.9248046875,5278,1,1757.0,1755.0,1577.0,1677.0,1747.0,3791.0,1757.0,1742.0,120.9415283203125,-35.8078727722168,-66.10956573486328,Left
4822.9248046875,5278,1,1749.0,1753.0,1708.0,1684.0,1747.0,3796.0,1756.0,1737.0,120.9415283203125,-35.8078727722168,-66.10956573486328,Left
4818.12255859375,5279,1,1753.0,1755.0,2007.0,1709.0,1748.0,1193.0,1749.0,1736.0,120.9415283203125,-35.8078727722168,-66.10956573486328,Left
4820.12255859375,5279,1,1757.0,1756.0,1949.0,1717.0,1748.0,181.0,1757.0,1743.0,120.9415283203125,-35.8078727722168,-66.10956573486328,Left
4822.12255859375,5279,1,1754.0,1753.0,1958.0,1652.0,1747.0,276.0,1753.0,1745.0,120.9415283203125,-35.8078727722168,-66.10956573486328,Left
4824.12255859375,5279,1,1753.0,1756.0,1821.0,1738.0,1749.0,551.0,1757.0,1753.0,120.9415283203125,-35.8078727722168,-66.10956573486328,Left
4826.12255859375,5279,1,1755.0,1752.0,1837.0,1671.0,1749.0,781.0,1757.0,1741.0,120.9415283203125,-35.8078727722168,-66.10956573486328,Left
4830.509765625,5280,1,1755.0,1752.0,1838.0,1659.0,1751.0,969.0,1743.0,1747.0,120.9415283203125,-35.8078727722168,-66.10956573486328,Left
4832.509765625,5280,1,1756.0,1759.0,1963.0,1561.0,1753.0,1115.0,1758.0,1751.0,120.9415283203125,-35.8078727722168,-66.10956573486328,Left
4834.509765625,5280,1,1759.0,1763.0,1767.0,1608.0,1749.0,3793.0,1757.0,1736.0,120.9415283203125,-35.8078727722168,-66.10956573486328,Left
4836.509765625,5280,1,1756.0,1754.0,1723.0,1749.0,1747.0,3789.0,1757.0,1739.0,120.9415283203125,-35.8078727722168,-66.10956573486328,Left
4838.509765625,5280,1,1763.0,1757.0,1741.0,1758.0,1709.0,3789.0,1757.0,1737.0,120.9415283203125,-35.8078727722168,-66.10956573486328,Left
4837.57568359375,5281,1,1753.0,1753.0,1753.0,1814.0,1741.0,1227.0,1756.0,1749.0,120.9415283203125,-35.8078727722168,-66.10956573486328,Left
4839.57568359375,5281,1,1756.0,1757.0,1734.0,1811.0,1770.0,169.0,1755.0,1753.0,120.9415283203125,-35.8078727722168,-66.10956573486328,Left
4841.57568359375,5281,1,1764.0,1764.0,1723.0,1779.0,1757.0,311.0,1759.0,1756.0,120.9415283203125,-35.8078727722168,-66.10956573486328,Left
4843.57568359375,5281,1,1755.0,1762.0,1720.0,1595.0,1749.0,584.0,1759.0,1752.0,120.9415283203125,-35.8078727722168,-66.10956573486328,Left
4845.57568359375,5281,1,1757.0,1757.0,1809.0,1667.0,1753.0,806.0,1756.0,1748.0,120.9415283203125,-35.8078727722168,-66.10956573486328,Left
4847.7509765625,5282,1,1757.0,1763.0,1834.0,1791.0,1752.0,988.0,1757.0,1751.0,120.9415283203125,-35.8078727722168,-66.10956573486328,Left
4849.7509765625,5282,1,1759.0,1757.0,1733.0,1788.0,1751.0,1128.0,1757.0,1756.0,120.9415283203125,-35.8078727722168,-66.10956573486328,Left
4851.7509765625,5282,1,1753.0,1753.0,1630.0,1671.0,1740.0,3796.0,1757.0,1725.0,120.9415283203125,-35.8078727722168,-66.10956573486328,Left
4853.7509765625,5282,1,1751.0,1749.0,1891.0,1608.0,1743.0,3795.0,1757.0,1738.0,120.9415283203125,-35.8078727722168,-66.10956573486328,Left
4855.7509765625,5282,1,1749.0,1751.0,1788.0,1783.0,1747.0,3793.0,1755.0,1740.0,120.9415283203125,-35.8078727722168,-66.10956573486328,Left
4874.92236328125,5283,1,1757.0,1767.0,1797.0,1911.0,1755.0,1349.0,1757.0,1751.0,120.9415283203125,-35.8078727722168,-66.10956573486328,Left
4876.92236328125,5283,1,1753.0,1757.0,1836.0,1909.0,1747.0,303.0,1756.0,1743.0,120.9415283203125,-35.8078727722168,-66.10956573486328,Left
4878.92236328125,5283,1,1753.0,1757.0,1752.0,1861.0,1752.0,291.0,1755.0,1743.0,120.9415283203125,-35.8078727722168,-66.10956573486328,Left
4880.92236328125,5283,1,1752.0,1755.0,1775.0,1822.0,1739.0,569.0,1759.0,1751.0,120.9415283203125,-35.8078727722168,-66.10956573486328,Left
4882.92236328125,5283,1,1747.0,1751.0,1705.0,1964.0,1745.0,795.0,1756.0,1752.0,120.9415283203125,-35.8078727722168,-66.10956573486328,Left
4875.89892578125,5284,1,1756.0,1748.0,1706.0,1832.0,1752.0,987.0,1757.0,1751.0,120.80686950683594,-35.688201904296875,-66.1430435180664,Left
4877.89892578125,5284,1,1756.0,1753.0,1751.0,1774.0,1739.0,1123.0,1755.0,1747.0,120.80686950683594,-35.688201904296875,-66.1430435180664,Left
4879.89892578125,5284,1,1755.0,1751.0,1603.0,1541.0,1737.0,3793.0,1758.0,1741.0,120.80686950683594,-35.688201904296875,-66.1430435180664,Left
4881.89892578125,5284,1,1770.0,1764.0,1702.0,1686.0,1765.0,3787.0,1754.0,1752.0,120.80686950683594,-35.688201904296875,-66.1430435180664,Left
4883.89892578125,5284,1,1767.0,1765.0,1493.0,1755.0,1753.0,3791.0,1753.0,1745.0,120.80686950683594,-35.688201904296875,-66.1430435180664,Left
4875.89892578125,5285,1,1778.0,1773.0,1739.0,1801.0,1778.0,1525.0,1756.0,1751.0,120.80686950683594,-35.688201904296875,-66.1430435180664,Left
4877.89892578125,5285,1,1755.0,1759.0,1660.0,1815.0,1751.0,423.0,1757.0,1739.0,120.80686950683594,-35.688201904296875,-66.1430435180664,Left
4879.89892578125,5285,1,1742.0,1756.0,1637.0,1901.0,1739.0,237.0,1757.0,1739.0,120.80686950683594,-35.688201904296875,-66.1430435180664,Left
4881.89892578125,5285,1,1747.0,1753.0,1524.0,1897.0,1737.0,523.0,1759.0,1739.0,120.80686950683594,-35.688201904296875,-66.1430435180664,Left
4883.89892578125,5285,1,1743.0,1752.0,1727.0,1933.0,1734.0,755.0,1755.0,1746.0,120.80686950683594,-35.688201904296875,-66.1430435180664,Left
4886.45703125,5286,1,1755.0,1752.0,1807.0,1839.0,1739.0,955.0,1755.0,1751.0,120.80686950683594,-35.688201904296875,-66.1430435180664,Left
4888.45703125,5286,1,1767.0,1765.0,1865.0,1768.0,1779.0,1097.0,1757.0,1754.0,120.80686950683594,-35.688201904296875,-66.1430435180664,Left
4890.45703125,5286,1,1766.0,1772.0,1769.0,1779.0,1765.0,3789.0,1757.0,1737.0,120.80686950683594,-35.688201904296875,-66.1430435180664,Left
4892.45703125,5286,1,1753.0,1759.0,1781.0,1675.0,1743.0,3789.0,1757.0,1740.0,120.80686950683594,-35.688201904296875,-66.1430435180664,Left
4894.45703125,5286,1,1756.0,1759.0,1835.0,1798.0,1751.0,3799.0,1759.0,1747.0,120.80686950683594,-35.688201904296875,-66.1430435180664,Left
4896.92236328125,5287,1,1755.0,1759.0,1819.0,1843.0,1748.0,1499.0,1758.0,1751.0,120.80686950683594,-35.688201904296875,-66.1430435180664,Left
4898.92236328125,5287,1,1765.0,1757.0,1798.0,1811.0,1747.0,283.0,1757.0,1751.0,120.80686950683594,-35.688201904296875,-66.1430435180664,Left
4900.92236328125,5287,1,1763.0,1757.0,1935.0,1879.0,1753.0,237.0,1757.0,1759.0,120.80686950683594,-35.688201904296875,-66.1430435180664,Left
4902.92236328125,5287,1,1749.0,1754.0,1822.0,1781.0,1747.0,521.0,1757.0,1747.0,120.80686950683594,-35.688201904296875,-66.1430435180664,Left
4904.92236328125,5287,1,1749.0,1754.0,1868.0,1771.0,1743.0,751.0,1755.0,1739.0,120.80686950683594,-35.688201904296875,-66.1430435180664,Left
4909.44189453125,5288,1,1750.0,1757.0,1782.0,1864.0,1743.0,951.0,1758.0,1734.0,120.80686950683594,-35.688201904296875,-66.1430435180664,Left
4911.44189453125,5288,1,1747.0,1765.0,1629.0,1786.0,1737.0,1093.0,1755.0,1741.0,120.80686950683594,-35.688201904296875,-66.1430435180664,Left
4913.44189453125,5288,1,1752.0,1757.0,1286.0,1611.0,1753.0,3797.0,1756.0,1739.0,120.80686950683594,-35.688201904296875,-66.1430435180664,Left
4915.44189453125,5288,1,1753.0,1763.0,1434.0,1624.0,1749.0,3791.0,1755.0,1741.0,120.80686950683594,-35.688201904296875,-66.1430435180664,Left
4917.44189453125,5288,1,1757.0,1757.0,1657.0,1660.0,1751.0,3795.0,1757.0,1743.0,120.80686950683594,-35.688201904296875,-66.1430435180664,Left
4917.52099609375,5289,1,1765.0,1755.0,1833.0,1773.0,1752.0,1519.0,1755.0,1749.0,120.80686950683594,-35.688201904296875,-66.1430435180664,Left
4919.52099609375,5289,1,1765.0,1758.0,1930.0,1607.0,1751.0,393.0,1757.0,1755.0,120.80686950683594,-35.688201904296875,-66.1430435180664,Left
4921.52099609375,5289,1,1757.0,1759.0,1935.0,1767.0,1754.0,264.0,1758.0,1749.0,120.80686950683594,-35.688201904296875,-66.1430435180664,Left
4923.52099609375,5289,1,1770.0,1765.0,1595.0,1772.0,1752.0,548.0,1756.0,1752.0,120.80686950683594,-35.688201904296875,-66.1430435180664,Left
4925.52099609375,5289,1,1756.0,1763.0,1612.0,1699.0,1749.0,776.0,1755.0,1747.0,120.80686950683594,-35.688201904296875,-66.1430435180664,Left
4928.13720703125,5290,1,1754.0,1762.0,1662.0,1678.0,1743.0,972.0,1757.0,1747.0,120.80686950683594,-35.688201904296875,-66.1430435180664,Left
4930.13720703125,5290,1,1757.0,1759.0,1773.0,1544.0,1749.0,1109.0,1757.0,1747.0,120.80686950683594,-35.688201904296875,-66.1430435180664,Left
4932.13720703125,5290,1,1769.0,1758.0,1739.0,1516.0,1753.0,3795.0,1758.0,1752.0,120.59217834472656,-35.707977294921875,-66.0452880859375,Left
4934.13720703125,5290,1,1759.0,1756.0,1783.0,1555.0,1743.0,3787.0,1758.0,1746.0,120.59217834472656,-35.707977294921875,-66.0452880859375,Left
4936.13720703125,5290,1,1759.0,1755.0,1813.0,1675.0,1743.0,3789.0,1757.0,1737.0,120.59217834472656,-35.707977294921875,-66.0452880859375,Left
4935.7607421875,5291,1,1743.0,1755.0,1896.0,1946.0,1751.0,1575.0,1756.0,1733.0,120.59217834472656,-35.707977294921875,-66.0452880859375,Left
4937.7607421875,5291,1,1749.0,1765.0,1814.0,1967.0,1763.0,421.0,1757.0,1747.0,120.59217834472656,-35.707977294921875,-66.0452880859375,Left
4939.7607421875,5291,1,1757.0,1759.0,1820.0,2045.0,1749.0,234.0,1755.0,1743.0,120.59217834472656,-35.707977294921875,-66.0452880859375,Left
4941.7607421875,5291,1,1753.0,1757.0,1876.0,1965.0,1753.0,544.0,1757.0,1748.0,120.59217834472656,-35.707977294921875,-66.0452880859375,Left
4943.7607421875,5291,1,1758.0,1756.0,1753.0,1797.0,1752.0,765.0,1757.0,1749.0,120.59217834472656,-35.707977294921875,-66.0452880859375,Left
4945.7607421875,5292,1,1753.0,1747.0,1635.0,1791.0,1746.0,956.0,1757.0,1750.0,120.59217834472656,-35.707977294921875,-66.0452880859375,Left
4947.7607421875,5292,1,1749.0,1752.0,1849.0,1771.0,1775.0,1097.0,1757.0,1753.0,120.59217834472656,-35.707977294921875,-66.0452880859375,Left
4949.7607421875,5292,1,1755.0,1753.0,1874.0,1695.0,1749.0,3789.0,1757.0,1748.0,120.59217834472656,-35.707977294921875,-66.0452880859375,Left
4951.7607421875,5292,1,1753.0,1755.0,1683.0,1775.0,1751.0,3787.0,1757.0,1749.0,120.59217834472656,-35.707977294921875,-66.0452880859375,Left
4953.7607421875,5292,1,1755.0,1752.0,1837.0,1829.0,1743.0,3793.0,1756.0,1739.0,120.59217834472656,-35.707977294921875,-66.0452880859375,Left
4957.77197265625,5293,1,1753.0,1757.0,1967.0,1880.0,1735.0,1573.0,1757.0,1748.0,120.59217834472656,-35.707977294921875,-66.0452880859375,Left
4959.77197265625,5293,1,1775.0,1765.0,1977.0,1981.0,1762.0,408.0,1757.0,1753.0,120.59217834472656,-35.707977294921875,-66.0452880859375,Left
4961.77197265625,5293,1,1759.0,1758.0,1919.0,1994.0,1753.0,285.0,1757.0,1743.0,120.59217834472656,-35.707977294921875,-66.0452880859375,Left
4963.77197265625,5293,1,1750.0,1765.0,1737.0,1851.0,1752.0,564.0,1757.0,1749.0,120.59217834472656,-35.707977294921875,-66.0452880859375,Left
4965.77197265625,5293,1,1751.0,1757.0,1854.0,1898.0,1735.0,791.0,1758.0,1739.0,120.59217834472656,-35.707977294921875,-66.0452880859375,Left
4993.3818359375,5294,1,1759.0,1751.0,1721.0,1628.0,1743.0,982.0,1757.0,1746.0,120.59217834472656,-35.707977294921875,-66.0452880859375,Left
4995.3818359375,5294,1,1762.0,1751.0,1779.0,1513.0,1746.0,1117.0,1755.0,1757.0,120.59217834472656,-35.707977294921875,-66.0452880859375,Left
4997.3818359375,5294,1,1754.0,1757.0,1531.0,1451.0,1749.0,3795.0,1759.0,1743.0,120.59217834472656,-35.707977294921875,-66.0452880859375,Left
4999.3818359375,5294,1,1751.0,1754.0,1481.0,1483.0,1751.0,3785.0,1757.0,1741.0,120.59217834472656,-35.707977294921875,-66.0452880859375,Left
5001.3818359375,5294,1,1756.0,1758.0,1610.0,1487.0,1753.0,3790.0,1755.0,1747.0,120.59217834472656,-35.707977294921875,-66.0452880859375,Left
4993.3818359375,5295,1,1755.0,1749.0,1764.0,1629.0,1749.0,1551.0,1757.0,1749.0,120.59217834472656,-35.707977294921875,-66.0452880859375,Left
4995.3818359375,5295,1,1752.0,1763.0,1867.0,1573.0,1746.0,471.0,1757.0,1749.0,120.59217834472656,-35.707977294921875,-66.0452880859375,Left
4997.3818359375,5295,1,1765.0,1763.0,1893.0,1563.0,1753.0,329.0,1757.0,1757.0,120.59217834472656,-35.707977294921875,-66.0452880859375,Left
4999.3818359375,5295,1,1752.0,1764.0,1831.0,1639.0,1749.0,596.0,1757.0,1748.0,120.59217834472656,-35.707977294921875,-66.0452880859375,Left
