Timestamp_ms,Packet_Number,Trial_ID,Ch1,Ch2,Ch3,Ch4,Ch5,Ch6,Ch7,Ch8,Ch9,Ch10,Ch11,Label
1969.8753662109375,19653,1,1693.0,1755.0,1674.0,1823.0,1755.0,1755.0,1766.0,1739.0,90.75938415527344,-26.260034561157227,-71.76963806152344,Left
1971.8753662109375,19653,1,1722.0,1763.0,1816.0,1769.0,1757.0,1756.0,1759.0,1740.0,90.75938415527344,-26.260034561157227,-71.76963806152344,Left
1973.8753662109375,19653,1,1773.0,1757.0,1815.0,1769.0,1756.0,1746.0,1757.0,1762.0,90.3859634399414,-26.212722778320312,-71.8989486694336,Left
1975.8753662109375,19653,1,1801.0,1755.0,1771.0,1693.0,1753.0,1752.0,1764.0,1756.0,90.3859634399414,-26.212722778320312,-71.8989486694336,Left
1977.8753662109375,19653,1,1829.0,1753.0,1725.0,1567.0,1753.0,1753.0,1765.0,1749.0,90.3859634399414,-26.212722778320312,-71.8989486694336,Left
1978.9801025390625,19654,1,1817.0,1767.0,1719.0,1674.0,1743.0,1752.0,1765.0,1745.0,90.3859634399414,-26.212722778320312,-71.8989486694336,Left
1980.9801025390625,19654,1,1799.0,1763.0,1765.0,1805.0,1741.0,1753.0,1765.0,1757.0,90.3859634399414,-26.212722778320312,-71.8989486694336,Left
1982.9801025390625,19654,1,1747.0,1765.0,1816.0,1867.0,1748.0,1751.0,1766.0,1761.0,90.3859634399414,-26.212722778320312,-71.8989486694336,Left
1984.9801025390625,19654,1,1723.0,1763.0,1732.0,1887.0,1751.0,1755.0,1765.0,1751.0,90.3859634399414,-26.212722778320312,-71.8989486694336,Left
1986.9801025390625,19654,1,1694.0,1763.0,1566.0,1861.0,1755.0,1756.0,1765.0,1739.0,90.3859634399414,-26.212722778320312,-71.8989486694336,Left
1988.4901123046875,19655,1,1690.0,1755.0,1766.0,1799.0,1758.0,1755.0,1763.0,1739.0,90.3859634399414,-26.212722778320312,-71.8989486694336,Left
1990.4901123046875,19655,1,1715.0,1763.0,1757.0,1750.0,1755.0,1755.0,1763.0,1753.0,90.3859634399414,-26.212722778320312,-71.8989486694336,Left
1992.4901123046875,19655,1,1765.0,1763.0,1832.0,1683.0,1753.0,1747.0,1764.0,1756.0,90.3859634399414,-26.212722778320312,-71.8989486694336,Left
1994.4901123046875,19655,1,1805.0,1763.0,1737.0,1671.0,1753.0,1755.0,1763.0,1753.0,90.3859634399414,-26.212722778320312,-71.8989486694336,Left
1996.4901123046875,19655,1,1824.0,1767.0,1735.0,1739.0,1753.0,1753.0,1764.0,1757.0,90.3859634399414,-26.212722778320312,-71.8989486694336,Left
1998.4000244140625,19656,1,1814.0,1753.0,1783.0,1779.0,1751.0,1751.0,1763.0,1747.0,90.3859634399414,-26.212722778320312,-71.8989486694336,Left
2000.4000244140625,19656,1,1785.0,1764.0,1816.0,1862.0,1747.0,1752.0,1763.0,1766.0,90.3859634399414,-26.212722778320312,-71.8989486694336,Left
2002.4000244140625,19656,1,1741.0,1758.0,1833.0,1821.0,1736.0,1752.0,1753.0,1751.0,90.3859634399414,-26.212722778320312,-71.8989486694336,Left
2004.4000244140625,19656,1,1717.0,1765.0,1797.0,1819.0,1749.0,1753.0,1763.0,1751.0,90.3859634399414,-26.212722778320312,-71.8989486694336,Left
2006.4000244140625,19656,1,1689.0,1765.0,1774.0,1719.0,1745.0,1752.0,1764.0,1751.0,90.3859634399414,-26.212722778320312,-71.8989486694336,Left
2009.0391845703125,19657,1,1699.0,1757.0,1609.0,1755.0,1754.0,1755.0,1766.0,1721.0,90.3859634399414,-26.212722778320312,-71.8989486694336,Left
2011.0391845703125,19657,1,1720.0,1766.0,1703.0,1703.0,1753.0,1755.0,1764.0,1743.0,90.3859634399414,-26.212722778320312,-71.8989486694336,Left
2013.0391845703125,19657,1,1765.0,1765.0,1828.0,1677.0,1755.0,1753.0,1759.0,1749.0,90.3859634399414,-26.212722778320312,-71.8989486694336,Left
2015.0391845703125,19657,1,1805.0,1763.0,1721.0,1692.0,1751.0,1755.0,1753.0,1752.0,90.3859634399414,-26.212722778320312,-71.8989486694336,Left
2017.0391845703125,19657,1,1823.0,1759.0,1818.0,1685.0,1743.0,1752.0,1752.0,1750.0,90.3859634399414,-26.212722778320312,-71.8989486694336,Left
2018.797119140625,19658,1,1816.0,1749.0,1768.0,1819.0,1749.0,1753.0,1763.0,1758.0,90.3859634399414,-26.212722778320312,-71.8989486694336,Left
2020.797119140625,19658,1,1797.0,1764.0,1709.0,1747.0,1758.0,1753.0,1764.0,1757.0,90.3859634399414,-26.212722778320312,-71.8989486694336,Left
2022.797119140625,19658,1,1754.0,1765.0,1704.0,1819.0,1757.0,1755.0,1757.0,1764.0,90.3859634399414,-26.212722778320312,-71.8989486694336,Left
2024.797119140625,19658,1,1721.0,1765.0,1726.0,1838.0,1758.0,1748.0,1755.0,1747.0,90.3859634399414,-26.212722778320312,-71.8989486694336,Left
2026.797119140625,19658,1,1693.0,1765.0,1763.0,1875.0,1753.0,1753.0,1765.0,1750.0,90.3859634399414,-26.212722778320312,-71.8989486694336,Left
2028.9361572265625,19659,1,1692.0,1754.0,1911.0,1835.0,1754.0,1751.0,1763.0,1746.0,90.3859634399414,-26.212722778320312,-71.8989486694336,Left
2030.9361572265625,19659,1,1719.0,1753.0,1893.0,1783.0,1753.0,1755.0,1765.0,1755.0,90.3859634399414,-26.212722778320312,-71.8989486694336,Left
2032.9361572265625,19659,1,1771.0,1754.0,1706.0,1771.0,1751.0,1755.0,1766.0,1755.0,90.3859634399414,-26.212722778320312,-71.8989486694336,Left
2034.9361572265625,19659,1,1804.0,1763.0,1389.0,1712.0,1742.0,1747.0,1763.0,1720.0,90.3859634399414,-26.212722778320312,-71.8989486694336,Left
2036.9361572265625,19659,1,1821.0,1765.0,1776.0,1615.0,1749.0,1752.0,1763.0,1748.0,90.3859634399414,-26.212722778320312,-71.8989486694336,Left
2038.6650390625,19660,1,1787.0,1763.0,1784.0,1763.0,1755.0,1755.0,1765.0,1757.0,90.3859634399414,-26.212722778320312,-71.8989486694336,Left
2040.6650390625,19660,1,1801.0,1754.0,1705.0,1741.0,1768.0,1755.0,1765.0,1756.0,90.49014282226562,-26.165510177612305,-72.03388977050781,Left
2042.6650390625,19660,1,1757.0,1763.0,1711.0,1679.0,1751.0,1756.0,1754.0,1753.0,90.49014282226562,-26.165510177612305,-72.03388977050781,Left
2044.6650390625,19660,1,1721.0,1763.0,1786.0,1689.0,1747.0,1753.0,1765.0,1751.0,90.49014282226562,-26.165510177612305,-72.03388977050781,Left
2046.6650390625,19660,1,1695.0,1766.0,1833.0,1759.0,1755.0,1743.0,1765.0,1755.0,90.49014282226562,-26.165510177612305,-72.03388977050781,Left
2048.6640625,19661,1,1699.0,1765.0,1832.0,1685.0,1750.0,1753.0,1755.0,1749.0,90.49014282226562,-26.165510177612305,-72.03388977050781,Left
2050.6640625,19661,1,1711.0,1764.0,1807.0,1636.0,1753.0,1756.0,1759.0,1753.0,90.49014282226562,-26.165510177612305,-72.03388977050781,Left
2052.6640625,19661,1,1771.0,1763.0,1764.0,1655.0,1754.0,1756.0,1759.0,1751.0,90.49014282226562,-26.165510177612305,-72.03388977050781,Left
2054.6640625,19661,1,1805.0,1752.0,1765.0,1655.0,1753.0,1751.0,1763.0,1753.0,90.49014282226562,-26.165510177612305,-72.03388977050781,Left
2056.6640625,19661,1,1828.0,1763.0,1797.0,1630.0,1752.0,1754.0,1763.0,1749.0,90.49014282226562,-26.165510177612305,-72.03388977050781,Left
2060.584228515625,19662,1,1818.0,1759.0,1815.0,1735.0,1751.0,1757.0,1763.0,1740.0,90.49014282226562,-26.165510177612305,-72.03388977050781,Left
2062.584228515625,19662,1,1789.0,1765.0,1678.0,1883.0,1749.0,1746.0,1753.0,1746.0,90.49014282226562,-26.165510177612305,-72.03388977050781,Left
2064.584228515625,19662,1,1756.0,1764.0,1767.0,1897.0,1753.0,1754.0,1767.0,1753.0,90.49014282226562,-26.165510177612305,-72.03388977050781,Left
2066.584228515625,19662,1,1722.0,1763.0,1715.0,1878.0,1746.0,1747.0,1763.0,1737.0,90.49014282226562,-26.165510177612305,-72.03388977050781,Left
2068.584228515625,19662,1,1695.0,1763.0,1767.0,1865.0,1756.0,1747.0,1761.0,1733.0,90.49014282226562,-26.165510177612305,-72.03388977050781,Left
2069.232177734375,19663,1,1683.0,1765.0,1754.0,1861.0,1757.0,1753.0,1757.0,1756.0,90.49014282226562,-26.165510177612305,-72.03388977050781,Left
2071.232177734375,19663,1,1715.0,1763.0,1853.0,1773.0,1751.0,1754.0,1753.0,1751.0,90.49014282226562,-26.165510177612305,-72.03388977050781,Left
2073.232177734375,19663,1,1769.0,1758.0,1799.0,1711.0,1752.0,1749.0,1763.0,1756.0,90.49014282226562,-26.165510177612305,-72.03388977050781,Left
2075.232177734375,19663,1,1806.0,1763.0,1625.0,1756.0,1755.0,1756.0,1763.0,1735.0,90.49014282226562,-26.165510177612305,-72.03388977050781,Left
2077.232177734375,19663,1,1817.0,1763.0,1720.0,1683.0,1747.0,1741.0,1761.0,1751.0,90.49014282226562,-26.165510177612305,-72.03388977050781,Left
2078.79296875,19664,1,1817.0,1765.0,1835.0,1771.0,1748.0,1753.0,1765.0,1765.0,90.49014282226562,-26.165510177612305,-72.03388977050781,Left
2080.79296875,19664,1,1790.0,1754.0,1839.0,1672.0,1751.0,1740.0,1763.0,1756.0,90.49014282226562,-26.165510177612305,-72.03388977050781,Left
2082.79296875,19664,1,1748.0,1763.0,1753.0,1687.0,1755.0,1753.0,1765.0,1747.0,90.49014282226562,-26.165510177612305,-72.03388977050781,Left
2084.79296875,19664,1,1723.0,1755.0,1489.0,1799.0,1753.0,1743.0,1765.0,1737.0,90.49014282226562,-26.165510177612305,-72.03388977050781,Left
2086.79296875,19664,1,1697.0,1755.0,1823.0,1945.0,1742.0,1755.0,1765.0,1771.0,90.49014282226562,-26.165510177612305,-72.03388977050781,Left
2088.919189453125,19665,1,1701.0,1765.0,1803.0,1877.0,1751.0,1749.0,1764.0,1765.0,90.49014282226562,-26.165510177612305,-72.03388977050781,Left
2090.919189453125,19665,1,1720.0,1764.0,1781.0,1830.0,1749.0,1752.0,1757.0,1741.0,90.49014282226562,-26.165510177612305,-72.03388977050781,Left
2092.919189453125,19665,1,1771.0,1763.0,1785.0,1773.0,1747.0,1755.0,1763.0,1740.0,90.49014282226562,-26.165510177612305,-72.03388977050781,Left
2094.919189453125,19665,1,1798.0,1764.0,1775.0,1778.0,1771.0,1753.0,1759.0,1748.0,90.49014282226562,-26.165510177612305,-72.03388977050781,Left
2096.919189453125,19665,1,1828.0,1765.0,1787.0,1807.0,1752.0,1742.0,1759.0,1748.0,90.49014282226562,-26.165510177612305,-72.03388977050781,Left
2098.940185546875,19666,1,1819.0,1748.0,1753.0,1799.0,1724.0,1752.0,1765.0,1752.0,90.49014282226562,-26.165510177612305,-72.03388977050781,Left
2100.940185546875,19666,1,1789.0,1759.0,1751.0,1755.0,1764.0,1752.0,1765.0,1751.0,90.49014282226562,-26.165510177612305,-72.03388977050781,Left
2102.940185546875,19666,1,1759.0,1765.0,1738.0,1747.0,1764.0,1743.0,1765.0,1756.0,90.46707153320312,-26.145841598510742,-72.15648651123047,Left
2104.940185546875,19666,1,1722.0,1764.0,1721.0,1734.0,1758.0,1755.0,1759.0,1756.0,90.46707153320312,-26.145841598510742,-72.15648651123047,Left
2106.940185546875,19666,1,1693.0,1765.0,1748.0,1773.0,1742.0,1749.0,1765.0,1751.0,90.46707153320312,-26.145841598510742,-72.15648651123047,Left
2110.875244140625,19667,1,1691.0,1767.0,1752.0,1723.0,1751.0,1746.0,1753.0,1746.0,90.46707153320312,-26.145841598510742,-72.15648651123047,Left
2112.875244140625,19667,1,1721.0,1762.0,1786.0,1818.0,1748.0,1751.0,1763.0,1750.0,90.46707153320312,-26.145841598510742,-72.15648651123047,Left
2114.875244140625,19667,1,1771.0,1753.0,1814.0,1747.0,1739.0,1753.0,1751.0,1751.0,90.46707153320312,-26.145841598510742,-72.15648651123047,Left
2116.875244140625,19667,1,1798.0,1763.0,1805.0,1619.0,1761.0,1747.0,1753.0,1757.0,90.46707153320312,-26.145841598510742,-72.15648651123047,Left
2118.875244140625,19667,1,1823.0,1759.0,1765.0,1695.0,1756.0,1753.0,1765.0,1747.0,90.46707153320312,-26.145841598510742,-72.15648651123047,Left
2118.72412109375,19668,1,1818.0,1765.0,1769.0,1787.0,1753.0,1743.0,1759.0,1755.0,90.46707153320312,-26.145841598510742,-72.15648651123047,Left
2120.72412109375,19668,1,1788.0,1765.0,1739.0,1695.0,1749.0,1755.0,1765.0,1741.0,90.46707153320312,-26.145841598510742,-72.15648651123047,Left
2122.72412109375,19668,1,1755.0,1764.0,1738.0,1791.0,1753.0,1750.0,1765.0,1742.0,90.46707153320312,-26.145841598510742,-72.15648651123047,Left
2124.72412109375,19668,1,1723.0,1752.0,1784.0,1785.0,1746.0,1755.0,1765.0,1733.0,90.46707153320312,-26.145841598510742,-72.15648651123047,Left
2126.72412109375,19668,1,1691.0,1765.0,1643.0,1782.0,1757.0,1750.0,1762.0,1725.0,90.46707153320312,-26.145841598510742,-72.15648651123047,Left
2128.5751953125,19669,1,1699.0,1763.0,1783.0,1757.0,1753.0,1755.0,1763.0,1749.0,90.46707153320312,-26.145841598510742,-72.15648651123047,Left
2130.5751953125,19669,1,1709.0,1765.0,1674.0,1657.0,1759.0,1755.0,1765.0,1734.0,90.46707153320312,-26.145841598510742,-72.15648651123047,Left
2132.5751953125,19669,1,1769.0,1765.0,1822.0,1624.0,1756.0,1753.0,1764.0,1769.0,90.46707153320312,-26.145841598510742,-72.15648651123047,Left
2134.5751953125,19669,1,1803.0,1753.0,1907.0,1659.0,1747.0,1753.0,1765.0,1767.0,90.46707153320312,-26.145841598510742,-72.15648651123047,Left
2136.5751953125,19669,1,1823.0,1767.0,1863.0,1694.0,1750.0,1753.0,1763.0,1759.0,90.46707153320312,-26.145841598510742,-72.15648651123047,Left
2138.63232421875,19670,1,1816.0,1756.0,1687.0,1765.0,1755.0,1755.0,1765.0,1737.0,90.46707153320312,-26.145841598510742,-72.15648651123047,Left
2140.63232421875,19670,1,1799.0,1763.0,1611.0,1790.0,1755.0,1753.0,1763.0,1716.0,90.46707153320312,-26.145841598510742,-72.15648651123047,Left
2142.63232421875,19670,1,1749.0,1765.0,1669.0,1829.0,1740.0,1756.0,1767.0,1752.0,90.46707153320312,-26.145841598510742,-72.15648651123047,Left
2144.63232421875,19670,1,1717.0,1765.0,1781.0,1845.0,1753.0,1754.0,1767.0,1745.0,90.46707153320312,-26.145841598510742,-72.15648651123047,Left
2146.63232421875,19670,1,1693.0,1765.0,1752.0,1929.0,1757.0,1755.0,1764.0,1753.0,90.46707153320312,-26.145841598510742,-72.15648651123047,Left
2150.202392578125,19671,1,1687.0,1767.0,1801.0,1836.0,1753.0,1753.0,1765.0,1755.0,90.46707153320312,-26.145841598510742,-72.15648651123047,Left
2152.202392578125,19671,1,1717.0,1753.0,1798.0,1864.0,1755.0,1753.0,1763.0,1746.0,90.46707153320312,-26.145841598510742,-72.15648651123047,Left
2154.202392578125,19671,1,1763.0,1763.0,1791.0,1767.0,1750.0,1755.0,1763.0,1753.0,90.46707153320312,-26.145841598510742,-72.15648651123047,Left
2156.202392578125,19671,1,1802.0,1759.0,1780.0,1798.0,1745.0,1755.0,1755.0,1755.0,90.46707153320312,-26.145841598510742,-72.15648651123047,Left
2158.202392578125,19671,1,1824.0,1765.0,1815.0,1751.0,1752.0,1750.0,1752.0,1767.0,90.46707153320312,-26.145841598510742,-72.15648651123047,Left
2160.221435546875,19672,1,1813.0,1767.0,1787.0,1800.0,1752.0,1745.0,1767.0,1765.0,90.46707153320312,-26.145841598510742,-72.15648651123047,Left
2162.221435546875,19672,1,1801.0,1760.0,1820.0,1861.0,1739.0,1756.0,1764.0,1749.0,90.46707153320312,-26.145841598510742,-72.15648651123047,Left
2164.221435546875,19672,1,1758.0,1762.0,1499.0,1913.0,1739.0,1752.0,1764.0,1695.0,90.46707153320312,-26.145841598510742,-72.15648651123047,Left
2166.221435546875,19672,1,1721.0,1765.0,1740.0,1901.0,1751.0,1753.0,1765.0,1754.0,90.46707153320312,-26.145841598510742,-72.15648651123047,Left
2168.221435546875,19672,1,1693.0,1755.0,1771.0,1855.0,1753.0,1743.0,1765.0,1759.0,90.46707153320312,-26.145841598510742,-72.15648651123047,Left
2169.48193359375,19673,1,1691.0,1763.0,1787.0,1806.0,1753.0,1748.0,1757.0,1757.0,90.35299682617188,-26.08526039123535,-72.31380462646484,Left
2171.48193359375,19673,1,1714.0,1762.0,1849.0,1705.0,1755.0,1754.0,1763.0,1755.0,90.35299682617188,-26.08526039123535,-72.31380462646484,Left
2173.48193359375,19673,1,1769.0,1765.0,1766.0,1699.0,1755.0,1747.0,1764.0,1754.0,90.35299682617188,-26.08526039123535,-72.31380462646484,Left
2175.48193359375,19673,1,1791.0,1763.0,1751.0,1631.0,1741.0,1755.0,1765.0,1763.0,90.35299682617188,-26.08526039123535,-72.31380462646484,Left
2177.48193359375,19673,1,1815.0,1764.0,1784.0,1633.0,1754.0,1751.0,1753.0,1743.0,90.35299682617188,-26.08526039123535,-72.31380462646484,Left
2178.2919921875,19674,1,1818.0,1755.0,1526.0,1683.0,1747.0,1753.0,1762.0,1708.0,90.35299682617188,-26.08526039123535,-72.31380462646484,Left
2180.2919921875,19674,1,1791.0,1763.0,1778.0,1759.0,1751.0,1753.0,1764.0,1757.0,90.35299682617188,-26.08526039123535,-72.31380462646484,Left
2182.2919921875,19674,1,1759.0,1765.0,1818.0,1820.0,1755.0,1751.0,1764.0,1781.0,90.35299682617188,-26.08526039123535,-72.31380462646484,Left
2184.2919921875,19674,1,1722.0,1753.0,1723.0,1784.0,1754.0,1755.0,1763.0,1757.0,90.35299682617188,-26.08526039123535,-72.31380462646484,Left
2186.2919921875,19674,1,1694.0,1763.0,1781.0,1844.0,1753.0,1753.0,1753.0,1747.0,90.35299682617188,-26.08526039123535,-72.31380462646484,Left
2188.302001953125,19675,1,1691.0,1764.0,1840.0,1739.0,1742.0,1753.0,1763.0,1741.0,90.35299682617188,-26.08526039123535,-72.31380462646484,Left
2190.302001953125,19675,1,1711.0,1763.0,1835.0,1651.0,1743.0,1745.0,1759.0,1753.0,90.35299682617188,-26.08526039123535,-72.31380462646484,Left
2192.302001953125,19675,1,1768.0,1755.0,1701.0,1617.0,1752.0,1755.0,1763.0,1724.0,90.35299682617188,-26.08526039123535,-72.31380462646484,Left
2194.302001953125,19675,1,1806.0,1759.0,1784.0,1639.0,1751.0,1753.0,1757.0,1747.0,90.35299682617188,-26.08526039123535,-72.31380462646484,Left
2196.302001953125,19675,1,1821.0,1765.0,1637.0,1661.0,1752.0,1753.0,1763.0,1720.0,90.35299682617188,-26.08526039123535,-72.31380462646484,Left
2199.756103515625,19676,1,1807.0,1757.0,1757.0,1624.0,1754.0,1751.0,1765.0,1774.0,90.35299682617188,-26.08526039123535,-72.31380462646484,Left
2201.756103515625,19676,1,1787.0,1767.0,1821.0,1691.0,1759.0,1752.0,1763.0,1774.0,90.35299682617188,-26.08526039123535,-72.31380462646484,Left
2203.756103515625,19676,1,1751.0,1759.0,1837.0,1775.0,1762.0,1747.0,1765.0,1755.0,90.35299682617188,-26.08526039123535,-72.31380462646484,Left
2205.756103515625,19676,1,1722.0,1763.0,1832.0,1811.0,1749.0,1753.0,1763.0,1752.0,90.35299682617188,-26.08526039123535,-72.31380462646484,Left
2207.756103515625,19676,1,1693.0,1765.0,1751.0,1831.0,1741.0,1753.0,1753.0,1749.0,90.35299682617188,-26.08526039123535,-72.31380462646484,Left
2209.119140625,19677,1,1699.0,1755.0,1588.0,1739.0,1751.0,1751.0,1757.0,1725.0,90.35299682617188,-26.08526039123535,-72.31380462646484,Left
2211.119140625,19677,1,1719.0,1765.0,1810.0,1800.0,1753.0,1753.0,1764.0,1769.0,90.35299682617188,-26.08526039123535,-72.31380462646484,Left
2213.119140625,19677,1,1765.0,1763.0,1863.0,1749.0,1765.0,1745.0,1759.0,1769.0,90.35299682617188,-26.08526039123535,-72.31380462646484,Left
2215.119140625,19677,1,1804.0,1764.0,1733.0,1739.0,1753.0,1747.0,1762.0,1763.0,90.35299682617188,-26.08526039123535,-72.31380462646484,Left
2217.119140625,19677,1,1823.0,1765.0,1643.0,1624.0,1759.0,1756.0,1764.0,1717.0,90.35299682617188,-26.08526039123535,-72.31380462646484,Left
2220.494140625,19678,1,1811.0,1761.0,1751.0,1672.0,1751.0,1756.0,1763.0,1721.0,90.35299682617188,-26.08526039123535,-72.31380462646484,Left
2222.494140625,19678,1,1799.0,1765.0,1955.0,1721.0,1767.0,1755.0,1763.0,1757.0,90.35299682617188,-26.08526039123535,-72.31380462646484,Left
2224.494140625,19678,1,1763.0,1765.0,1785.0,1736.0,1739.0,1755.0,1766.0,1756.0,90.35299682617188,-26.08526039123535,-72.31380462646484,Left
2226.494140625,19678,1,1717.0,1763.0,1324.0,1753.0,1743.0,1757.0,1765.0,1722.0,90.35299682617188,-26.08526039123535,-72.31380462646484,Left
2228.494140625,19678,1,1694.0,1763.0,1768.0,1689.0,1742.0,1753.0,1755.0,1721.0,90.35299682617188,-26.08526039123535,-72.31380462646484,Left
2229.591064453125,19679,1,1689.0,1759.0,1971.0,1663.0,1765.0,1754.0,1763.0,1769.0,90.35299682617188,-26.08526039123535,-72.31380462646484,Left
2231.591064453125,19679,1,1711.0,1762.0,1910.0,1781.0,1752.0,1755.0,1763.0,1784.0,90.35299682617188,-26.08526039123535,-72.31380462646484,Left
2233.591064453125,19679,1,1767.0,1759.0,1849.0,1803.0,1742.0,1755.0,1763.0,1745.0,90.31343841552734,-25.961301803588867,-72.37364959716797,Left
2235.591064453125,19679,1,1791.0,1764.0,1683.0,1785.0,1751.0,1743.0,1763.0,1764.0,90.31343841552734,-25.961301803588867,-72.37364959716797,Left
2237.591064453125,19679,1,1813.0,1762.0,1572.0,1811.0,1747.0,1743.0,1763.0,1739.0,90.31343841552734,-25.961301803588867,-72.37364959716797,Left
2238.585205078125,19680,1,1816.0,1757.0,1912.0,1767.0,1746.0,1751.0,1749.0,1737.0,90.31343841552734,-25.961301803588867,-72.37364959716797,Left
2240.585205078125,19680,1,1799.0,1763.0,1687.0,1843.0,1753.0,1753.0,1764.0,1725.0,90.31343841552734,-25.961301803588867,-72.37364959716797,Left
2242.585205078125,19680,1,1755.0,1754.0,1757.0,1907.0,1754.0,1750.0,1763.0,1762.0,90.31343841552734,-25.961301803588867,-72.37364959716797,Left
2244.585205078125,19680,1,1717.0,1763.0,1757.0,1938.0,1764.0,1747.0,1765.0,1757.0,90.31343841552734,-25.961301803588867,-72.37364959716797,Left
2246.585205078125,19680,1,1700.0,1754.0,1634.0,1831.0,1753.0,1755.0,1766.0,1754.0,90.31343841552734,-25.961301803588867,-72.37364959716797,Left
2248.5810546875,19681,1,1693.0,1763.0,1651.0,1711.0,1745.0,1745.0,1762.0,1735.0,90.31343841552734,-25.961301803588867,-72.37364959716797,Left
2250.5810546875,19681,1,1715.0,1753.0,1701.0,1754.0,1753.0,1755.0,1751.0,1711.0,90.31343841552734,-25.961301803588867,-72.37364959716797,Left
2252.5810546875,19681,1,1765.0,1763.0,1752.0,1681.0,1750.0,1754.0,1765.0,1748.0,90.31343841552734,-25.961301803588867,-72.37364959716797,Left
2254.5810546875,19681,1,1801.0,1765.0,1840.0,1608.0,1748.0,1755.0,1758.0,1759.0,90.31343841552734,-25.961301803588867,-72.37364959716797,Left
2256.5810546875,19681,1,1816.0,1764.0,1701.0,1607.0,1757.0,1753.0,1753.0,1752.0,90.31343841552734,-25.961301803588867,-72.37364959716797,Left
2260.672119140625,19682,1,1811.0,1757.0,1749.0,1643.0,1757.0,1753.0,1763.0,1769.0,90.31343841552734,-25.961301803588867,-72.37364959716797,Left
2262.672119140625,19682,1,1801.0,1753.0,1759.0,1695.0,1746.0,1754.0,1759.0,1751.0,90.31343841552734,-25.961301803588867,-72.37364959716797,Left
2264.672119140625,19682,1,1758.0,1766.0,1764.0,1877.0,1753.0,1755.0,1763.0,1753.0,90.31343841552734,-25.961301803588867,-72.37364959716797,Left
2266.672119140625,19682,1,1725.0,1755.0,1769.0,1917.0,1759.0,1755.0,1759.0,1765.0,90.31343841552734,-25.961301803588867,-72.37364959716797,Left
2268.672119140625,19682,1,1695.0,1754.0,1769.0,1867.0,1751.0,1755.0,1759.0,1755.0,90.31343841552734,-25.961301803588867,-72.37364959716797,Left
2270.875244140625,19683,1,1699.0,1759.0,1805.0,1861.0,1757.0,1755.0,1754.0,1751.0,90.31343841552734,-25.961301803588867,-72.37364959716797,Left
2272.875244140625,19683,1,1719.0,1763.0,1845.0,1867.0,1755.0,1752.0,1752.0,1758.0,90.31343841552734,-25.961301803588867,-72.37364959716797,Left
2274.875244140625,19683,1,1768.0,1761.0,1771.0,1759.0,1741.0,1754.0,1759.0,1759.0,90.31343841552734,-25.961301803588867,-72.37364959716797,Left
2276.875244140625,19683,1,1802.0,1765.0,1722.0,1785.0,1747.0,1745.0,1761.0,1749.0,90.31343841552734,-25.961301803588867,-72.37364959716797,Left
2278.875244140625,19683,1,1821.0,1762.0,1451.0,1735.0,1748.0,1753.0,1759.0,1747.0,90.31343841552734,-25.961301803588867,-72.37364959716797,Left
2280.207275390625,19684,1,1819.0,1755.0,1947.0,1725.0,1751.0,1755.0,1763.0,1741.0,90.31343841552734,-25.961301803588867,-72.37364959716797,Left
2282.207275390625,19684,1,1801.0,1764.0,1827.0,1740.0,1733.0,1751.0,1763.0,1707.0,90.31343841552734,-25.961301803588867,-72.37364959716797,Left
2284.207275390625,19684,1,1757.0,1763.0,1781.0,1773.0,1725.0,1746.0,1755.0,1681.0,90.31343841552734,-25.961301803588867,-72.37364959716797,Left
2286.207275390625,19684,1,1726.0,1748.0,1531.0,1820.0,1754.0,1753.0,1755.0,1711.0,90.31343841552734,-25.961301803588867,-72.37364959716797,Left
2288.207275390625,19684,1,1691.0,1753.0,1805.0,1853.0,1779.0,1753.0,1763.0,1780.0,90.31343841552734,-25.961301803588867,-72.37364959716797,Left
2288.194091796875,19685,1,1699.0,1757.0,1833.0,1770.0,1768.0,1738.0,1755.0,1771.0,90.31343841552734,-25.961301803588867,-72.37364959716797,Left
2290.194091796875,19685,1,1708.0,1753.0,1819.0,1735.0,1763.0,1753.0,1765.0,1757.0,90.31343841552734,-25.961301803588867,-72.37364959716797,Left
2292.194091796875,19685,1,1765.0,1753.0,1810.0,1709.0,1724.0,1747.0,1753.0,1753.0,90.31343841552734,-25.961301803588867,-72.37364959716797,Left
2294.194091796875,19685,1,1789.0,1759.0,1778.0,1579.0,1771.0,1753.0,1763.0,1757.0,90.31343841552734,-25.961301803588867,-72.37364959716797,Left
2296.194091796875,19685,1,1815.0,1761.0,1721.0,1587.0,1753.0,1755.0,1753.0,1753.0,90.31343841552734,-25.961301803588867,-72.37364959716797,Left
2299.963134765625,19686,1,1819.0,1765.0,1753.0,1657.0,1749.0,1755.0,1757.0,1752.0,89.73509216308594,-25.750980377197266,-72.05274200439453,Left
2301.963134765625,19686,1,1801.0,1763.0,1775.0,1775.0,1751.0,1741.0,1753.0,1753.0,89.73509216308594,-25.750980377197266,-72.05274200439453,Left
2303.963134765625,19686,1,1755.0,1763.0,1699.0,1821.0,1775.0,1752.0,1764.0,1776.0,89.73509216308594,-25.750980377197266,-72.05274200439453,Left
2305.963134765625,19686,1,1723.0,1763.0,1712.0,1821.0,1763.0,1746.0,1764.0,1767.0,89.73509216308594,-25.750980377197266,-72.05274200439453,Left
2307.963134765625,19686,1,1699.0,1765.0,1716.0,1865.0,1755.0,1754.0,1753.0,1736.0,89.73509216308594,-25.750980377197266,-72.05274200439453,Left
2310.5830078125,19687,1,1691.0,1757.0,1670.0,1831.0,1739.0,1754.0,1763.0,1703.0,89.73509216308594,-25.750980377197266,-72.05274200439453,Left
2312.5830078125,19687,1,1716.0,1765.0,1983.0,1721.0,1726.0,1753.0,1759.0,1725.0,89.73509216308594,-25.750980377197266,-72.05274200439453,Left
2314.5830078125,19687,1,1765.0,1765.0,1804.0,1677.0,1787.0,1753.0,1753.0,1765.0,89.73509216308594,-25.750980377197266,-72.05274200439453,Left
2316.5830078125,19687,1,1803.0,1765.0,1765.0,1701.0,1773.0,1754.0,1759.0,1755.0,89.73509216308594,-25.750980377197266,-72.05274200439453,Left
2318.5830078125,19687,1,1819.0,1758.0,1739.0,1790.0,1659.0,1754.0,1764.0,1755.0,89.73509216308594,-25.750980377197266,-72.05274200439453,Left
2318.276123046875,19688,1,1815.0,1765.0,1736.0,1741.0,1709.0,1755.0,1766.0,1765.0,89.73509216308594,-25.750980377197266,-72.05274200439453,Left
2320.276123046875,19688,1,1787.0,1765.0,1727.0,1759.0,1806.0,1753.0,1765.0,1757.0,89.73509216308594,-25.750980377197266,-72.05274200439453,Left
2322.276123046875,19688,1,1757.0,1759.0,1719.0,1852.0,1798.0,1751.0,1766.0,1743.0,89.73509216308594,-25.750980377197266,-72.05274200439453,Left
2324.276123046875,19688,1,1725.0,1753.0,1717.0,1807.0,1771.0,1753.0,1764.0,1739.0,89.73509216308594,-25.750980377197266,-72.05274200439453,Left
2326.276123046875,19688,1,1693.0,1759.0,1716.0,1828.0,1785.0,1743.0,1758.0,1737.0,89.73509216308594,-25.750980377197266,-72.05274200439453,Left
2330.080078125,19689,1,1693.0,1749.0,1763.0,1831.0,1763.0,1747.0,1765.0,1759.0,89.73509216308594,-25.750980377197266,-72.05274200439453,Left
2332.080078125,19689,1,1710.0,1763.0,1772.0,1772.0,1701.0,1753.0,1763.0,1763.0,89.73509216308594,-25.750980377197266,-72.05274200439453,Left
2334.080078125,19689,1,1755.0,1763.0,1797.0,1701.0,1748.0,1743.0,1763.0,1750.0,89.73509216308594,-25.750980377197266,-72.05274200439453,Left
2336.080078125,19689,1,1800.0,1754.0,1804.0,1737.0,1823.0,1751.0,1755.0,1765.0,89.73509216308594,-25.750980377197266,-72.05274200439453,Left
2338.080078125,19689,1,1811.0,1764.0,1769.0,1675.0,1836.0,1752.0,1763.0,1750.0,89.73509216308594,-25.750980377197266,-72.05274200439453,Left
2339.80810546875,19690,1,1818.0,1757.0,1727.0,1687.0,1589.0,1740.0,1756.0,1723.0,89.73509216308594,-25.750980377197266,-72.05274200439453,Left
2341.80810546875,19690,1,1800.0,1763.0,1739.0,1807.0,1621.0,1751.0,1763.0,1747.0,89.73509216308594,-25.750980377197266,-72.05274200439453,Left
2343.80810546875,19690,1,1757.0,1765.0,1747.0,1805.0,1549.0,1755.0,1765.0,1767.0,89.73509216308594,-25.750980377197266,-72.05274200439453,Left
2345.80810546875,19690,1,1721.0,1764.0,1757.0,1852.0,1789.0,1747.0,1766.0,1771.0,89.73509216308594,-25.750980377197266,-72.05274200439453,Left
2347.80810546875,19690,1,1691.0,1763.0,1755.0,1899.0,1916.0,1743.0,1757.0,1769.0,89.73509216308594,-25.750980377197266,-72.05274200439453,Left
2348.125244140625,19691,1,1693.0,1759.0,1750.0,1811.0,1850.0,1753.0,1747.0,1717.0,89.73509216308594,-25.750980377197266,-72.05274200439453,Left
2350.125244140625,19691,1,1703.0,1756.0,1717.0,1711.0,1842.0,1752.0,1764.0,1719.0,89.73509216308594,-25.750980377197266,-72.05274200439453,Left
2352.125244140625,19691,1,1765.0,1753.0,1787.0,1646.0,1823.0,1755.0,1761.0,1773.0,89.73509216308594,-25.750980377197266,-72.05274200439453,Left
2354.125244140625,19691,1,1799.0,1764.0,1789.0,1679.0,1749.0,1753.0,1763.0,1765.0,89.73509216308594,-25.750980377197266,-72.05274200439453,Left
2356.125244140625,19691,1,1815.0,1753.0,1797.0,1669.0,1663.0,1747.0,1759.0,1771.0,89.73509216308594,-25.750980377197266,-72.05274200439453,Left
2360.134033203125,19692,1,1812.0,1767.0,1727.0,1619.0,1948.0,1751.0,1757.0,1721.0,89.73509216308594,-25.750980377197266,-72.05274200439453,Left
2362.134033203125,19692,1,1803.0,1765.0,1732.0,1679.0,1763.0,1753.0,1764.0,1735.0,89.73509216308594,-25.750980377197266,-72.05274200439453,Left
2364.134033203125,19692,1,1763.0,1752.0,1747.0,1875.0,1629.0,1753.0,1757.0,1768.0,89.27196502685547,-25.737516403198242,-71.32185363769531,Left
2366.134033203125,19692,1,1721.0,1763.0,1721.0,1913.0,1752.0,1753.0,1765.0,1763.0,89.27196502685547,-25.737516403198242,-71.32185363769531,Left
2368.134033203125,19692,1,1693.0,1764.0,1750.0,1972.0,1854.0,1755.0,1763.0,1753.0,89.27196502685547,-25.737516403198242,-71.32185363769531,Left
2368.923095703125,19693,1,1689.0,1759.0,1767.0,1853.0,1707.0,1751.0,1759.0,1737.0,89.27196502685547,-25.737516403198242,-71.32185363769531,Left
2370.923095703125,19693,1,1702.0,1762.0,1747.0,1765.0,1479.0,1753.0,1763.0,1721.0,89.27196502685547,-25.737516403198242,-71.32185363769531,Left
2372.923095703125,19693,1,1763.0,1764.0,1779.0,1672.0,1671.0,1753.0,1763.0,1763.0,89.27196502685547,-25.737516403198242,-71.32185363769531,Left
2374.923095703125,19693,1,1798.0,1751.0,1787.0,1669.0,1889.0,1754.0,1752.0,1747.0,89.27196502685547,-25.737516403198242,-71.32185363769531,Left
2376.923095703125,19693,1,1819.0,1763.0,1775.0,1594.0,2190.0,1753.0,1759.0,1758.0,89.27196502685547,-25.737516403198242,-71.32185363769531,Left
2380.209228515625,19694,1,1817.0,1759.0,1771.0,1507.0,1596.0,1753.0,1755.0,1771.0,89.27196502685547,-25.737516403198242,-71.32185363769531,Left
2382.209228515625,19694,1,1797.0,1763.0,1734.0,1643.0,1253.0,1753.0,1757.0,1749.0,89.27196502685547,-25.737516403198242,-71.32185363769531,Left
2384.209228515625,19694,1,1757.0,1763.0,1717.0,1782.0,1492.0,1751.0,1766.0,1771.0,89.27196502685547,-25.737516403198242,-71.32185363769531,Left
2386.209228515625,19694,1,1723.0,1755.0,1759.0,1847.0,1977.0,1739.0,1767.0,1748.0,89.27196502685547,-25.737516403198242,-71.32185363769531,Left
2388.209228515625,19694,1,1689.0,1765.0,1765.0,1865.0,1837.0,1753.0,1758.0,1687.0,89.27196502685547,-25.737516403198242,-71.32185363769531,Left
2390.609375,19695,1,1693.0,1765.0,1689.0,1725.0,1710.0,1755.0,1759.0,1747.0,89.27196502685547,-25.737516403198242,-71.32185363769531,Left
2392.609375,19695,1,1715.0,1763.0,1817.0,1722.0,1769.0,1755.0,1763.0,1837.0,89.27196502685547,-25.737516403198242,-71.32185363769531,Left
2394.609375,19695,1,1762.0,1758.0,1831.0,1702.0,1899.0,1743.0,1764.0,1750.0,89.27196502685547,-25.737516403198242,-71.32185363769531,Left
2396.609375,19695,1,1801.0,1763.0,1779.0,1594.0,1868.0,1753.0,1765.0,1748.0,89.27196502685547,-25.737516403198242,-71.32185363769531,Left
2398.609375,19695,1,1822.0,1758.0,1749.0,1628.0,1645.0,1756.0,1761.0,1736.0,89.27196502685547,-25.737516403198242,-71.32185363769531,Left
2398.856201171875,19696,1,1819.0,1763.0,1741.0,1605.0,1617.0,1752.0,1763.0,1727.0,89.27196502685547,-25.737516403198242,-71.32185363769531,Left
2400.856201171875,19696,1,1805.0,1761.0,1737.0,1693.0,1763.0,1751.0,1763.0,1724.0,89.27196502685547,-25.737516403198242,-71.32185363769531,Left
2402.856201171875,19696,1,1763.0,1764.0,1755.0,1719.0,1613.0,1752.0,1765.0,1736.0,89.27196502685547,-25.737516403198242,-71.32185363769531,Left
2404.856201171875,19696,1,1725.0,1764.0,1705.0,1765.0,1951.0,1754.0,1765.0,1753.0,89.27196502685547,-25.737516403198242,-71.32185363769531,Left
2406.856201171875,19696,1,1701.0,1754.0,1767.0,1865.0,1850.0,1750.0,1757.0,1751.0,89.27196502685547,-25.737516403198242,-71.32185363769531,Left
2410.550048828125,19697,1,1695.0,1766.0,1699.0,1955.0,1383.0,1751.0,1763.0,1707.0,89.27196502685547,-25.737516403198242,-71.32185363769531,Left
2412.550048828125,19697,1,1707.0,1763.0,1757.0,1929.0,1517.0,1753.0,1752.0,1749.0,89.27196502685547,-25.737516403198242,-71.32185363769531,Left
2414.550048828125,19697,1,1766.0,1763.0,1861.0,1811.0,1573.0,1747.0,1764.0,1772.0,89.27196502685547,-25.737516403198242,-71.32185363769531,Left
2416.550048828125,19697,1,1802.0,1765.0,1723.0,1785.0,1803.0,1753.0,1765.0,1694.0,89.27196502685547,-25.737516403198242,-71.32185363769531,Left
2418.550048828125,19697,1,1814.0,1764.0,1663.0,1689.0,2455.0,1751.0,1757.0,1765.0,89.27196502685547,-25.737516403198242,-71.32185363769531,Left
2421.197265625,19698,1,1823.0,1757.0,1785.0,1717.0,2079.0,1752.0,1763.0,1791.0,89.27196502685547,-25.737516403198242,-71.32185363769531,Left
2423.197265625,19698,1,1800.0,1753.0,1813.0,1764.0,1706.0,1745.0,1763.0,1774.0,89.27196502685547,-25.737516403198242,-71.32185363769531,Left
2425.197265625,19698,1,1763.0,1750.0,1706.0,1868.0,1425.0,1745.0,1765.0,1707.0,89.27196502685547,-25.737516403198242,-71.32185363769531,Left
2427.197265625,19698,1,1725.0,1763.0,1752.0,1837.0,1711.0,1753.0,1767.0,1753.0,89.27196502685547,-25.737516403198242,-71.32185363769531,Left
2429.197265625,19698,1,1695.0,1765.0,1739.0,1901.0,1689.0,1755.0,1764.0,1767.0,89.27196502685547,-25.737516403198242,-71.32185363769531,Left
2430.67431640625,19699,1,1694.0,1753.0,1759.0,1999.0,1829.0,1755.0,1758.0,1750.0,89.27196502685547,-25.737516403198242,-71.32185363769531,Left
2432.67431640625,19699,1,1719.0,1758.0,1704.0,1900.0,1553.0,1752.0,1765.0,1687.0,87.70193481445312,-26.598100662231445,-70.53089904785156,Left
2434.67431640625,19699,1,1764.0,1753.0,1809.0,1784.0,1903.0,1755.0,1759.0,1757.0,87.70193481445312,-26.598100662231445,-70.53089904785156,Left
2436.67431640625,19699,1,1803.0,1763.0,1801.0,1829.0,1679.0,1756.0,1762.0,1745.0,87.70193481445312,-26.598100662231445,-70.53089904785156,Left
2438.67431640625,19699,1,1821.0,1759.0,1705.0,1715.0,1455.0,1757.0,1751.0,1749.0,87.70193481445312,-26.598100662231445,-70.53089904785156,Left
2439.7841796875,19700,1,1820.0,1763.0,1766.0,1845.0,1867.0,1739.0,1765.0,1770.0,87.70193481445312,-26.598100662231445,-70.53089904785156,Left
2441.7841796875,19700,1,1797.0,1763.0,1701.0,1803.0,1723.0,1753.0,1763.0,1737.0,87.70193481445312,-26.598100662231445,-70.53089904785156,Left
2443.7841796875,19700,1,1757.0,1758.0,1737.0,1903.0,1693.0,1757.0,1765.0,1755.0,87.70193481445312,-26.598100662231445,-70.53089904785156,Left
2445.7841796875,19700,1,1724.0,1763.0,1746.0,1939.0,1715.0,1756.0,1765.0,1779.0,87.70193481445312,-26.598100662231445,-70.53089904785156,Left
2447.7841796875,19700,1,1693.0,1764.0,1749.0,1845.0,1751.0,1753.0,1753.0,1753.0,87.70193481445312,-26.598100662231445,-70.53089904785156,Left
2448.35009765625,19701,1,1689.0,1761.0,1767.0,1876.0,1704.0,1752.0,1748.0,1727.0,87.70193481445312,-26.598100662231445,-70.53089904785156,Left
2450.35009765625,19701,1,1703.0,1759.0,1773.0,1769.0,1747.0,1743.0,1762.0,1755.0,87.70193481445312,-26.598100662231445,-70.53089904785156,Left
2452.35009765625,19701,1,1747.0,1765.0,1817.0,1801.0,1637.0,1753.0,1763.0,1734.0,87.70193481445312,-26.598100662231445,-70.53089904785156,Left
2454.35009765625,19701,1,1762.0,1753.0,1785.0,1709.0,1725.0,1751.0,1763.0,1709.0,87.70193481445312,-26.598100662231445,-70.53089904785156,Left
2456.35009765625,19701,1,1775.0,1753.0,1839.0,1760.0,1383.0,1752.0,1766.0,1752.0,87.70193481445312,-26.598100662231445,-70.53089904785156,Left
2460.902099609375,19702,1,1765.0,1765.0,1785.0,1832.0,2085.0,1751.0,1759.0,1791.0,87.70193481445312,-26.598100662231445,-70.53089904785156,Left
2462.902099609375,19702,1,1751.0,1765.0,1719.0,1915.0,2031.0,1753.0,1764.0,1755.0,87.70193481445312,-26.598100662231445,-70.53089904785156,Left
2464.902099609375,19702,1,1709.0,1765.0,1642.0,1915.0,2005.0,1752.0,1765.0,1750.0,87.70193481445312,-26.598100662231445,-70.53089904785156,Left
2466.902099609375,19702,1,1681.0,1763.0,1803.0,1929.0,1909.0,1757.0,1766.0,1775.0,87.70193481445312,-26.598100662231445,-70.53089904785156,Left
2468.902099609375,19702,1,1639.0,1765.0,1763.0,1656.0,2007.0,1753.0,1761.0,1737.0,87.70193481445312,-26.598100662231445,-70.53089904785156,Left
2468.419921875,19703,1,1635.0,1758.0,1751.0,1847.0,1903.0,1752.0,1757.0,1673.0,87.70193481445312,-26.598100662231445,-70.53089904785156,Left
2470.419921875,19703,1,1669.0,1764.0,1816.0,1891.0,1571.0,1752.0,1757.0,1767.0,87.70193481445312,-26.598100662231445,-70.53089904785156,Left
2472.419921875,19703,1,1723.0,1767.0,1770.0,1847.0,1547.0,1747.0,1763.0,1737.0,87.70193481445312,-26.598100662231445,-70.53089904785156,Left
2474.419921875,19703,1,1767.0,1754.0,1849.0,1790.0,1528.0,1755.0,1764.0,1735.0,87.70193481445312,-26.598100662231445,-70.53089904785156,Left
2476.419921875,19703,1,1791.0,1754.0,1800.0,1757.0,1642.0,1753.0,1763.0,1717.0,87.70193481445312,-26.598100662231445,-70.53089904785156,Left
2481.449462890625,19704,1,1797.0,1765.0,1748.0,1725.0,1843.0,1755.0,1765.0,1745.0,87.70193481445312,-26.598100662231445,-70.53089904785156,Left
2483.449462890625,19704,1,1781.0,1756.0,1769.0,1719.0,1913.0,1754.0,1763.0,1743.0,87.70193481445312,-26.598100662231445,-70.53089904785156,Left
2485.449462890625,19704,1,1741.0,1763.0,1723.0,1803.0,1500.0,1753.0,1755.0,1723.0,87.70193481445312,-26.598100662231445,-70.53089904785156,Left
2487.449462890625,19704,1,1708.0,1765.0,1619.0,1686.0,1493.0,1756.0,1755.0,1703.0,87.70193481445312,-26.598100662231445,-70.53089904785156,Left
2489.449462890625,19704,1,1673.0,1763.0,1673.0,1789.0,1679.0,1755.0,1766.0,1750.0,87.70193481445312,-26.598100662231445,-70.53089904785156,Left
2488.6279296875,19705,1,1677.0,1767.0,1785.0,1772.0,1663.0,1747.0,1763.0,1783.0,87.70193481445312,-26.598100662231445,-70.53089904785156,Left
2490.6279296875,19705,1,1699.0,1766.0,1827.0,1804.0,1634.0,1754.0,1756.0,1787.0,87.70193481445312,-26.598100662231445,-70.53089904785156,Left
2492.6279296875,19705,1,1751.0,1765.0,1823.0,1784.0,2019.0,1747.0,1756.0,1708.0,92.13877868652344,-27.243131637573242,-65.97716522216797,Left
2494.6279296875,19705,1,1797.0,1765.0,1784.0,1645.0,2303.0,1755.0,1763.0,1783.0,92.13877868652344,-27.243131637573242,-65.97716522216797,Left
2496.6279296875,19705,1,1817.0,1761.0,1743.0,1700.0,1454.0,1756.0,1753.0,1715.0,92.13877868652344,-27.243131637573242,-65.97716522216797,Left
2500.835205078125,19706,1,1818.0,1759.0,1770.0,1803.0,1188.0,1756.0,1755.0,1755.0,92.13877868652344,-27.243131637573242,-65.97716522216797,Left
2502.835205078125,19706,1,1797.0,1764.0,1753.0,1748.0,2347.0,1754.0,1762.0,1737.0,92.13877868652344,-27.243131637573242,-65.97716522216797,Left
2504.835205078125,19706,1,1763.0,1753.0,1741.0,1629.0,1977.0,1753.0,1765.0,1741.0,92.13877868652344,-27.243131637573242,-65.97716522216797,Left
2506.835205078125,19706,1,1720.0,1765.0,1772.0,1673.0,1685.0,1753.0,1765.0,1752.0,92.13877868652344,-27.243131637573242,-65.97716522216797,Left
2508.835205078125,19706,1,1684.0,1754.0,1754.0,1683.0,2229.0,1753.0,1766.0,1767.0,92.13877868652344,-27.243131637573242,-65.97716522216797,Left
2509.14501953125,19707,1,1689.0,1758.0,1751.0,1659.0,1831.0,1755.0,1763.0,1747.0,92.13877868652344,-27.243131637573242,-65.97716522216797,Left
2511.14501953125,19707,1,1692.0,1758.0,1709.0,1689.0,951.0,1753.0,1763.0,1747.0,92.13877868652344,-27.243131637573242,-65.97716522216797,Left
2513.14501953125,19707,1,1765.0,1765.0,1823.0,1655.0,1502.0,1753.0,1767.0,1741.0,92.13877868652344,-27.243131637573242,-65.97716522216797,Left
2515.14501953125,19707,1,1807.0,1765.0,1864.0,1566.0,2275.0,1751.0,1758.0,1759.0,92.13877868652344,-27.243131637573242,-65.97716522216797,Left
2517.14501953125,19707,1,1830.0,1765.0,1775.0,1498.0,1268.0,1753.0,1763.0,1705.0,92.13877868652344,-27.243131637573242,-65.97716522216797,Left
2521.464111328125,19708,1,1830.0,1755.0,1709.0,1563.0,1579.0,1755.0,1765.0,1764.0,92.13877868652344,-27.243131637573242,-65.97716522216797,Left
2523.464111328125,19708,1,1813.0,1755.0,1663.0,1503.0,2879.0,1747.0,1757.0,1756.0,92.13877868652344,-27.243131637573242,-65.97716522216797,Left
2525.464111328125,19708,1,1769.0,1756.0,1651.0,1567.0,1865.0,1752.0,1755.0,1718.0,92.13877868652344,-27.243131637573242,-65.97716522216797,Left
2527.464111328125,19708,1,1733.0,1753.0,1733.0,1699.0,1967.0,1756.0,1765.0,1770.0,92.13877868652344,-27.243131637573242,-65.97716522216797,Left
2529.464111328125,19708,1,1695.0,1763.0,1787.0,1592.0,1653.0,1753.0,1763.0,1759.0,92.13877868652344,-27.243131637573242,-65.97716522216797,Left
2529.84912109375,19709,1,1692.0,1765.0,1785.0,1687.0,1415.0,1753.0,1762.0,1779.0,92.13877868652344,-27.243131637573242,-65.97716522216797,Left
2531.84912109375,19709,1,1703.0,1765.0,1799.0,1620.0,2057.0,1755.0,1763.0,1771.0,92.13877868652344,-27.243131637573242,-65.97716522216797,Left
2533.84912109375,19709,1,1765.0,1764.0,1775.0,1651.0,1455.0,1755.0,1763.0,1736.0,92.13877868652344,-27.243131637573242,-65.97716522216797,Left
2535.84912109375,19709,1,1807.0,1755.0,1773.0,1613.0,1497.0,1755.0,1763.0,1727.0,92.13877868652344,-27.243131637573242,-65.97716522216797,Left
2537.84912109375,19709,1,1831.0,1755.0,1759.0,1695.0,1579.0,1755.0,1753.0,1755.0,92.13877868652344,-27.243131637573242,-65.97716522216797,Left
2538.97607421875,19710,1,1823.0,1753.0,1765.0,1799.0,2183.0,1751.0,1758.0,1737.0,92.13877868652344,-27.243131637573242,-65.97716522216797,Left
2540.97607421875,19710,1,1813.0,1765.0,1737.0,1833.0,1341.0,1755.0,1763.0,1722.0,92.13877868652344,-27.243131637573242,-65.97716522216797,Left
2542.97607421875,19710,1,1770.0,1764.0,1721.0,1799.0,1497.0,1753.0,1765.0,1781.0,92.13877868652344,-27.243131637573242,-65.97716522216797,Left
2544.97607421875,19710,1,1736.0,1765.0,1811.0,1834.0,2261.0,1756.0,1763.0,1800.0,92.13877868652344,-27.243131637573242,-65.97716522216797,Left
2546.97607421875,19710,1,1702.0,1753.0,1758.0,1881.0,1769.0,1756.0,1767.0,1755.0,92.13877868652344,-27.243131637573242,-65.97716522216797,Left
2550.85791015625,19711,1,1693.0,1753.0,1737.0,1805.0,1881.0,1755.0,1763.0,1756.0,92.13877868652344,-27.243131637573242,-65.97716522216797,Left
2552.85791015625,19711,1,1715.0,1752.0,1765.0,1833.0,1627.0,1751.0,1756.0,1737.0,92.13877868652344,-27.243131637573242,-65.97716522216797,Left
2554.85791015625,19711,1,1767.0,1767.0,1816.0,1727.0,1736.0,1755.0,1765.0,1743.0,92.13877868652344,-27.243131637573242,-65.97716522216797,Left
2556.85791015625,19711,1,1812.0,1763.0,1780.0,1717.0,1329.0,1753.0,1765.0,1754.0,92.13877868652344,-27.243131637573242,-65.97716522216797,Left
2558.85791015625,19711,1,1836.0,1764.0,1765.0,1742.0,1615.0,1755.0,1766.0,1741.0,97.41613006591797,-25.760189056396484,-58.56845474243164,Left
2558.44921875,19712,1,1836.0,1755.0,1756.0,1719.0,2053.0,1755.0,1762.0,1753.0,97.41613006591797,-25.760189056396484,-58.56845474243164,Left
2560.44921875,19712,1,1817.0,1763.0,1702.0,1676.0,1853.0,1753.0,1764.0,1708.0,97.41613006591797,-25.760189056396484,-58.56845474243164,Left
2562.44921875,19712,1,1773.0,1763.0,1781.0,1741.0,1880.0,1753.0,1765.0,1851.0,97.41613006591797,-25.760189056396484,-58.56845474243164,Left
2564.44921875,19712,1,1741.0,1754.0,1743.0,1880.0,1454.0,1751.0,1755.0,1752.0,97.41613006591797,-25.760189056396484,-58.56845474243164,Left
2566.44921875,19712,1,1703.0,1767.0,1766.0,1746.0,1951.0,1754.0,1762.0,1765.0,97.41613006591797,-25.760189056396484,-58.56845474243164,Left
2568.92333984375,19713,1,1703.0,1749.0,1789.0,1775.0,1896.0,1755.0,1752.0,1734.0,97.41613006591797,-25.760189056396484,-58.56845474243164,Left
2570.92333984375,19713,1,1708.0,1759.0,1755.0,1727.0,1491.0,1746.0,1763.0,1718.0,97.41613006591797,-25.760189056396484,-58.56845474243164,Left
2572.92333984375,19713,1,1759.0,1753.0,1782.0,1711.0,1817.0,1753.0,1754.0,1739.0,97.41613006591797,-25.760189056396484,-58.56845474243164,Left
2574.92333984375,19713,1,1811.0,1753.0,1823.0,1622.0,1976.0,1747.0,1753.0,1773.0,97.41613006591797,-25.760189056396484,-58.56845474243164,Left
2576.92333984375,19713,1,1834.0,1747.0,1770.0,1623.0,1633.0,1756.0,1763.0,1751.0,97.41613006591797,-25.760189056396484,-58.56845474243164,Left
2578.30126953125,19714,1,1835.0,1759.0,1703.0,1708.0,1675.0,1754.0,1763.0,1755.0,97.41613006591797,-25.760189056396484,-58.56845474243164,Left
2580.30126953125,19714,1,1816.0,1763.0,1671.0,1750.0,1641.0,1749.0,1762.0,1743.0,97.41613006591797,-25.760189056396484,-58.56845474243164,Left
2582.30126953125,19714,1,1776.0,1759.0,1721.0,1720.0,1576.0,1755.0,1763.0,1719.0,97.41613006591797,-25.760189056396484,-58.56845474243164,Left
2584.30126953125,19714,1,1741.0,1765.0,1734.0,1783.0,1758.0,1755.0,1763.0,1707.0,97.41613006591797,-25.760189056396484,-58.56845474243164,Left
2586.30126953125,19714,1,1707.0,1759.0,1621.0,1769.0,1803.0,1753.0,1766.0,1766.0,97.41613006591797,-25.760189056396484,-58.56845474243164,Left
2588.660888671875,19715,1,1693.0,1763.0,1767.0,1772.0,1719.0,1755.0,1762.0,1756.0,97.41613006591797,-25.760189056396484,-58.56845474243164,Left
2590.660888671875,19715,1,1720.0,1763.0,1805.0,1687.0,1735.0,1755.0,1763.0,1751.0,97.41613006591797,-25.760189056396484,-58.56845474243164,Left
2592.660888671875,19715,1,1767.0,1765.0,1831.0,1657.0,1752.0,1754.0,1759.0,1751.0,97.41613006591797,-25.760189056396484,-58.56845474243164,Left
2594.660888671875,19715,1,1811.0,1762.0,1785.0,1692.0,1771.0,1756.0,1758.0,1756.0,97.41613006591797,-25.760189056396484,-58.56845474243164,Left
2596.660888671875,19715,1,1835.0,1763.0,1757.0,1671.0,1423.0,1755.0,1755.0,1725.0,97.41613006591797,-25.760189056396484,-58.56845474243164,Left
2598.676025390625,19716,1,1837.0,1764.0,1779.0,1839.0,1363.0,1755.0,1753.0,1743.0,97.41613006591797,-25.760189056396484,-58.56845474243164,Left
2600.676025390625,19716,1,1819.0,1764.0,1733.0,1852.0,2043.0,1753.0,1763.0,1763.0,97.41613006591797,-25.760189056396484,-58.56845474243164,Left
2602.676025390625,19716,1,1781.0,1755.0,1769.0,1758.0,2296.0,1751.0,1756.0,1781.0,97.41613006591797,-25.760189056396484,-58.56845474243164,Left
2604.676025390625,19716,1,1737.0,1764.0,1767.0,1971.0,2031.0,1753.0,1766.0,1749.0,97.41613006591797,-25.760189056396484,-58.56845474243164,Left
2606.676025390625,19716,1,1695.0,1767.0,1801.0,1949.0,1675.0,1749.0,1761.0,1748.0,97.41613006591797,-25.760189056396484,-58.56845474243164,Left
2608.842041015625,19717,1,1695.0,1747.0,1655.0,1867.0,1671.0,1753.0,1763.0,1765.0,97.41613006591797,-25.760189056396484,-58.56845474243164,Left
2610.842041015625,19717,1,1716.0,1759.0,1864.0,1833.0,1618.0,1753.0,1761.0,1773.0,97.41613006591797,-25.760189056396484,-58.56845474243164,Left
2612.842041015625,19717,1,1765.0,1765.0,1940.0,1804.0,1595.0,1753.0,1758.0,1765.0,97.41613006591797,-25.760189056396484,-58.56845474243164,Left
2614.842041015625,19717,1,1805.0,1761.0,1780.0,1895.0,1573.0,1752.0,1765.0,1736.0,97.41613006591797,-25.760189056396484,-58.56845474243164,Left
2616.842041015625,19717,1,1835.0,1765.0,1573.0,1883.0,1723.0,1747.0,1758.0,1707.0,97.41613006591797,-25.760189056396484,-58.56845474243164,Left
2618.219970703125,19718,1,1828.0,1764.0,1501.0,1848.0,1979.0,1755.0,1767.0,1742.0,97.41613006591797,-25.760189056396484,-58.56845474243164,Left
2620.219970703125,19718,1,1811.0,1763.0,1715.0,1913.0,1658.0,1755.0,1766.0,1741.0,97.41613006591797,-25.760189056396484,-58.56845474243164,Left
2622.219970703125,19718,1,1766.0,1763.0,1752.0,1839.0,1829.0,1747.0,1759.0,1749.0,97.41613006591797,-25.760189056396484,-58.56845474243164,Left
2624.219970703125,19718,1,1725.0,1762.0,1839.0,1812.0,1673.0,1753.0,1765.0,1765.0,97.41613006591797,-25.760189056396484,-58.56845474243164,Left
2626.219970703125,19718,1,1705.0,1767.0,1811.0,1853.0,1556.0,1753.0,1763.0,1765.0,94.9124755859375,-25.803295135498047,-57.649349212646484,Left
2628.38232421875,19719,1,1695.0,1762.0,1790.0,1705.0,1779.0,1751.0,1765.0,1733.0,94.9124755859375,-25.803295135498047,-57.649349212646484,Left
2630.38232421875,19719,1,1717.0,1763.0,1762.0,1766.0,1961.0,1743.0,1753.0,1727.0,94.9124755859375,-25.803295135498047,-57.649349212646484,Left
2632.38232421875,19719,1,1761.0,1763.0,1812.0,1782.0,1812.0,1753.0,1763.0,1753.0,94.9124755859375,-25.803295135498047,-57.649349212646484,Left
2634.38232421875,19719,1,1804.0,1765.0,1797.0,1636.0,1187.0,1755.0,1765.0,1773.0,94.9124755859375,-25.803295135498047,-57.649349212646484,Left
2636.38232421875,19719,1,1833.0,1763.0,1779.0,1647.0,2013.0,1755.0,1762.0,1748.0,94.9124755859375,-25.803295135498047,-57.649349212646484,Left
2638.459228515625,19720,1,1831.0,1753.0,1733.0,1639.0,1910.0,1754.0,1767.0,1722.0,94.9124755859375,-25.803295135498047,-57.649349212646484,Left
2640.459228515625,19720,1,1811.0,1763.0,1775.0,1639.0,1917.0,1755.0,1763.0,1781.0,94.9124755859375,-25.803295135498047,-57.649349212646484,Left
2642.459228515625,19720,1,1764.0,1763.0,1736.0,1719.0,1631.0,1754.0,1767.0,1751.0,94.9124755859375,-25.803295135498047,-57.649349212646484,Left
2644.459228515625,19720,1,1721.0,1759.0,1711.0,1787.0,1633.0,1747.0,1764.0,1750.0,94.9124755859375,-25.803295135498047,-57.649349212646484,Left
2646.459228515625,19720,1,1691.0,1765.0,1727.0,1802.0,1748.0,1755.0,1767.0,1755.0,94.9124755859375,-25.803295135498047,-57.649349212646484,Left
2648.562255859375,19721,1,1685.0,1765.0,1781.0,1749.0,1673.0,1747.0,1765.0,1755.0,94.9124755859375,-25.803295135498047,-57.649349212646484,Left
2650.562255859375,19721,1,1705.0,1763.0,1791.0,1852.0,1767.0,1746.0,1759.0,1724.0,94.9124755859375,-25.803295135498047,-57.649349212646484,Left
2652.562255859375,19721,1,1757.0,1754.0,1756.0,1747.0,1831.0,1753.0,1763.0,1752.0,94.9124755859375,-25.803295135498047,-57.649349212646484,Left
2654.562255859375,19721,1,1803.0,1763.0,1770.0,1751.0,1783.0,1753.0,1764.0,1749.0,94.9124755859375,-25.803295135498047,-57.649349212646484,Left
2656.562255859375,19721,1,1830.0,1758.0,1783.0,1754.0,1759.0,1757.0,1755.0,1767.0,94.9124755859375,-25.803295135498047,-57.649349212646484,Left
2658.760986328125,19722,1,1827.0,1763.0,1780.0,1668.0,1711.0,1745.0,1764.0,1758.0,94.9124755859375,-25.803295135498047,-57.649349212646484,Left
2660.760986328125,19722,1,1813.0,1766.0,1785.0,1747.0,1663.0,1750.0,1764.0,1755.0,94.9124755859375,-25.803295135498047,-57.649349212646484,Left
2662.760986328125,19722,1,1771.0,1759.0,1693.0,1733.0,1775.0,1755.0,1753.0,1727.0,94.9124755859375,-25.803295135498047,-57.649349212646484,Left
2664.760986328125,19722,1,1736.0,1763.0,1683.0,1663.0,1783.0,1752.0,1759.0,1763.0,94.9124755859375,-25.803295135498047,-57.649349212646484,Left
2666.760986328125,19722,1,1704.0,1763.0,1727.0,1830.0,1773.0,1754.0,1759.0,1755.0,94.9124755859375,-25.803295135498047,-57.649349212646484,Left
2668.453125,19723,1,1690.0,1754.0,1771.0,1807.0,1781.0,1746.0,1758.0,1743.0,94.9124755859375,-25.803295135498047,-57.649349212646484,Left
2670.453125,19723,1,1711.0,1764.0,1759.0,1851.0,1769.0,1753.0,1759.0,1737.0,94.9124755859375,-25.803295135498047,-57.649349212646484,Left
2672.453125,19723,1,1756.0,1763.0,1799.0,1813.0,1751.0,1752.0,1765.0,1753.0,94.9124755859375,-25.803295135498047,-57.649349212646484,Left
2674.453125,19723,1,1805.0,1755.0,1801.0,1767.0,1707.0,1752.0,1763.0,1749.0,94.9124755859375,-25.803295135498047,-57.649349212646484,Left
2676.453125,19723,1,1819.0,1765.0,1763.0,1708.0,1715.0,1755.0,1763.0,1739.0,94.9124755859375,-25.803295135498047,-57.649349212646484,Left
2678.9072265625,19724,1,1823.0,1765.0,1737.0,1693.0,1873.0,1755.0,1763.0,1751.0,94.9124755859375,-25.803295135498047,-57.649349212646484,Left
2680.9072265625,19724,1,1804.0,1755.0,1736.0,1669.0,1707.0,1756.0,1759.0,1753.0,94.9124755859375,-25.803295135498047,-57.649349212646484,Left
2682.9072265625,19724,1,1774.0,1765.0,1749.0,1655.0,1583.0,1745.0,1755.0,1747.0,94.9124755859375,-25.803295135498047,-57.649349212646484,Left
2684.9072265625,19724,1,1735.0,1765.0,1764.0,1702.0,1920.0,1755.0,1762.0,1775.0,94.9124755859375,-25.803295135498047,-57.649349212646484,Left
2686.9072265625,19724,1,1703.0,1764.0,1747.0,1836.0,1833.0,1752.0,1763.0,1751.0,94.9124755859375,-25.803295135498047,-57.649349212646484,Left
2688.64013671875,19725,1,1693.0,1759.0,1781.0,1831.0,1728.0,1755.0,1759.0,1755.0,94.9124755859375,-25.803295135498047,-57.649349212646484,Left
2690.64013671875,19725,1,1709.0,1753.0,1753.0,1897.0,1673.0,1753.0,1762.0,1748.0,94.9124755859375,-25.803295135498047,-57.649349212646484,Left
2692.64013671875,19725,1,1756.0,1765.0,1807.0,1849.0,1785.0,1753.0,1763.0,1748.0,95.42787170410156,-26.07324981689453,-58.6704216003418,Left
2694.64013671875,19725,1,1791.0,1766.0,1754.0,1741.0,1720.0,1757.0,1765.0,1742.0,95.42787170410156,-26.07324981689453,-58.6704216003418,Left
2696.64013671875,19725,1,1824.0,1759.0,1768.0,1623.0,1741.0,1752.0,1752.0,1759.0,95.42787170410156,-26.07324981689453,-58.6704216003418,Left
2698.684326171875,19726,1,1833.0,1755.0,1763.0,1737.0,1712.0,1755.0,1759.0,1735.0,95.42787170410156,-26.07324981689453,-58.6704216003418,Left
2700.684326171875,19726,1,1811.0,1765.0,1764.0,1719.0,1671.0,1753.0,1767.0,1737.0,95.42787170410156,-26.07324981689453,-58.6704216003418,Left
2702.684326171875,19726,1,1765.0,1763.0,1671.0,1806.0,1897.0,1752.0,1765.0,1739.0,95.42787170410156,-26.07324981689453,-58.6704216003418,Left
2704.684326171875,19726,1,1737.0,1765.0,1611.0,1843.0,1814.0,1755.0,1754.0,1765.0,95.42787170410156,-26.07324981689453,-58.6704216003418,Left
2706.684326171875,19726,1,1703.0,1763.0,1787.0,1895.0,1661.0,1757.0,1759.0,1763.0,95.42787170410156,-26.07324981689453,-58.6704216003418,Left
2709.177001953125,19727,1,1683.0,1765.0,1819.0,1818.0,1764.0,1751.0,1759.0,1784.0,95.42787170410156,-26.07324981689453,-58.6704216003418,Left
2711.177001953125,19727,1,1707.0,1765.0,1657.0,1901.0,1589.0,1757.0,1764.0,1709.0,95.42787170410156,-26.07324981689453,-58.6704216003418,Left
2713.177001953125,19727,1,1757.0,1763.0,1791.0,1799.0,1897.0,1753.0,1765.0,1740.0,95.42787170410156,-26.07324981689453,-58.6704216003418,Left
2715.177001953125,19727,1,1803.0,1764.0,1823.0,1751.0,1869.0,1755.0,1752.0,1759.0,95.42787170410156,-26.07324981689453,-58.6704216003418,Left
2717.177001953125,19727,1,1822.0,1765.0,1804.0,1767.0,2091.0,1747.0,1765.0,1764.0,95.42787170410156,-26.07324981689453,-58.6704216003418,Left
2718.614990234375,19728,1,1819.0,1759.0,1725.0,1781.0,1574.0,1743.0,1765.0,1735.0,95.42787170410156,-26.07324981689453,-58.6704216003418,Left
2720.614990234375,19728,1,1805.0,1751.0,1740.0,1763.0,1798.0,1747.0,1763.0,1756.0,95.42787170410156,-26.07324981689453,-58.6704216003418,Left
2722.614990234375,19728,1,1773.0,1765.0,1769.0,1752.0,1768.0,1754.0,1763.0,1762.0,95.42787170410156,-26.07324981689453,-58.6704216003418,Left
2724.614990234375,19728,1,1737.0,1755.0,1763.0,1735.0,1519.0,1755.0,1753.0,1762.0,95.42787170410156,-26.07324981689453,-58.6704216003418,Left
2726.614990234375,19728,1,1701.0,1763.0,1754.0,1829.0,1541.0,1755.0,1758.0,1756.0,95.42787170410156,-26.07324981689453,-58.6704216003418,Left
2729.1162109375,19729,1,1683.0,1759.0,1768.0,1735.0,2053.0,1753.0,1752.0,1753.0,95.42787170410156,-26.07324981689453,-58.6704216003418,Left
2731.1162109375,19729,1,1709.0,1763.0,1802.0,1703.0,1939.0,1742.0,1765.0,1752.0,95.42787170410156,-26.07324981689453,-58.6704216003418,Left
2733.1162109375,19729,1,1757.0,1755.0,1783.0,1823.0,1710.0,1753.0,1762.0,1755.0,95.42787170410156,-26.07324981689453,-58.6704216003418,Left
2735.1162109375,19729,1,1803.0,1757.0,1652.0,1719.0,1679.0,1753.0,1758.0,1735.0,95.42787170410156,-26.07324981689453,-58.6704216003418,Left
2737.1162109375,19729,1,1828.0,1764.0,1788.0,1755.0,1622.0,1751.0,1759.0,1763.0,95.42787170410156,-26.07324981689453,-58.6704216003418,Left
2738.508056640625,19730,1,1829.0,1764.0,1810.0,1735.0,1715.0,1755.0,1763.0,1759.0,95.42787170410156,-26.07324981689453,-58.6704216003418,Left
2740.508056640625,19730,1,1814.0,1754.0,1723.0,1707.0,1973.0,1754.0,1758.0,1750.0,95.42787170410156,-26.07324981689453,-58.6704216003418,Left
2742.508056640625,19730,1,1771.0,1760.0,1735.0,1747.0,1719.0,1755.0,1763.0,1755.0,95.42787170410156,-26.07324981689453,-58.6704216003418,Left
2744.508056640625,19730,1,1736.0,1764.0,1716.0,1813.0,1715.0,1755.0,1759.0,1745.0,95.42787170410156,-26.07324981689453,-58.6704216003418,Left
2746.508056640625,19730,1,1703.0,1765.0,1727.0,1852.0,1638.0,1755.0,1755.0,1736.0,95.42787170410156,-26.07324981689453,-58.6704216003418,Left
2748.4443359375,19731,1,1684.0,1763.0,1767.0,1759.0,1661.0,1753.0,1764.0,1736.0,95.42787170410156,-26.07324981689453,-58.6704216003418,Left
2750.4443359375,19731,1,1715.0,1763.0,1780.0,1715.0,2063.0,1755.0,1763.0,1767.0,95.42787170410156,-26.07324981689453,-58.6704216003418,Left
2752.4443359375,19731,1,1755.0,1759.0,1765.0,1579.0,1684.0,1753.0,1755.0,1725.0,95.42787170410156,-26.07324981689453,-58.6704216003418,Left
2754.4443359375,19731,1,1789.0,1763.0,1788.0,1527.0,1700.0,1747.0,1758.0,1750.0,95.42787170410156,-26.07324981689453,-58.6704216003418,Left
2756.4443359375,19731,1,1823.0,1765.0,1789.0,1529.0,1670.0,1754.0,1763.0,1755.0,95.21880340576172,-26.812822341918945,-59.0098991394043,Left
2758.80029296875,19732,1,1829.0,1753.0,1748.0,1611.0,1828.0,1752.0,1764.0,1751.0,95.21880340576172,-26.812822341918945,-59.0098991394043,Left
2760.80029296875,19732,1,1814.0,1763.0,1757.0,1723.0,1752.0,1753.0,1764.0,1749.0,95.21880340576172,-26.812822341918945,-59.0098991394043,Left
2762.80029296875,19732,1,1771.0,1764.0,1727.0,1843.0,1591.0,1755.0,1753.0,1755.0,95.21880340576172,-26.812822341918945,-59.0098991394043,Left
2764.80029296875,19732,1,1725.0,1753.0,1742.0,1909.0,1780.0,1751.0,1763.0,1763.0,95.21880340576172,-26.812822341918945,-59.0098991394043,Left
2766.80029296875,19732,1,1704.0,1763.0,1721.0,1895.0,1740.0,1754.0,1765.0,1765.0,95.21880340576172,-26.812822341918945,-59.0098991394043,Left
2771.984130859375,19733,1,1691.0,1775.0,1759.0,1845.0,1767.0,1753.0,1758.0,1722.0,95.21880340576172,-26.812822341918945,-59.0098991394043,Left
2773.984130859375,19733,1,1709.0,1759.0,1759.0,1772.0,2041.0,1756.0,1763.0,1712.0,95.21880340576172,-26.812822341918945,-59.0098991394043,Left
2775.984130859375,19733,1,1755.0,1765.0,1788.0,1689.0,1819.0,1753.0,1755.0,1753.0,95.21880340576172,-26.812822341918945,-59.0098991394043,Left
2777.984130859375,19733,1,1789.0,1754.0,1790.0,1683.0,1645.0,1755.0,1755.0,1767.0,95.21880340576172,-26.812822341918945,-59.0098991394043,Left
2779.984130859375,19733,1,1823.0,1763.0,1775.0,1557.0,1678.0,1753.0,1764.0,1755.0,95.21880340576172,-26.812822341918945,-59.0098991394043,Left
2778.38525390625,19734,1,1814.0,1763.0,1762.0,1599.0,1782.0,1749.0,1761.0,1750.0,95.21880340576172,-26.812822341918945,-59.0098991394043,Left
2780.38525390625,19734,1,1811.0,1766.0,1740.0,1739.0,1749.0,1754.0,1763.0,1749.0,95.21880340576172,-26.812822341918945,-59.0098991394043,Left
2782.38525390625,19734,1,1773.0,1759.0,1737.0,1843.0,1813.0,1755.0,1755.0,1749.0,95.21880340576172,-26.812822341918945,-59.0098991394043,Left
2784.38525390625,19734,1,1737.0,1765.0,1741.0,1934.0,1706.0,1753.0,1764.0,1737.0,95.21880340576172,-26.812822341918945,-59.0098991394043,Left
2786.38525390625,19734,1,1704.0,1761.0,1737.0,1963.0,1791.0,1753.0,1765.0,1749.0,95.21880340576172,-26.812822341918945,-59.0098991394043,Left
2789.97607421875,19735,1,1685.0,1752.0,1765.0,1915.0,1773.0,1751.0,1763.0,1750.0,95.21880340576172,-26.812822341918945,-59.0098991394043,Left
2791.97607421875,19735,1,1715.0,1763.0,1775.0,1807.0,1453.0,1743.0,1759.0,1737.0,95.21880340576172,-26.812822341918945,-59.0098991394043,Left
2793.97607421875,19735,1,1755.0,1765.0,1785.0,1645.0,1783.0,1747.0,1763.0,1771.0,95.21880340576172,-26.812822341918945,-59.0098991394043,Left
2795.97607421875,19735,1,1801.0,1753.0,1687.0,1596.0,2035.0,1757.0,1767.0,1749.0,95.21880340576172,-26.812822341918945,-59.0098991394043,Left
2797.97607421875,19735,1,1821.0,1763.0,1788.0,1626.0,1785.0,1747.0,1752.0,1753.0,95.21880340576172,-26.812822341918945,-59.0098991394043,Left
2800.218017578125,19736,1,1819.0,1766.0,1765.0,1747.0,1741.0,1748.0,1748.0,1755.0,95.21880340576172,-26.812822341918945,-59.0098991394043,Left
2802.218017578125,19736,1,1810.0,1759.0,1766.0,1813.0,1303.0,1743.0,1765.0,1765.0,95.21880340576172,-26.812822341918945,-59.0098991394043,Left
2804.218017578125,19736,1,1771.0,1752.0,1727.0,1884.0,1811.0,1750.0,1753.0,1749.0,95.21880340576172,-26.812822341918945,-59.0098991394043,Left
2806.218017578125,19736,1,1725.0,1763.0,1750.0,1956.0,2295.0,1747.0,1753.0,1723.0,95.21880340576172,-26.812822341918945,-59.0098991394043,Left
2808.218017578125,19736,1,1705.0,1763.0,1703.0,1979.0,1635.0,1755.0,1765.0,1739.0,95.21880340576172,-26.812822341918945,-59.0098991394043,Left
2808.319091796875,19737,1,1692.0,1765.0,1779.0,1879.0,1759.0,1753.0,1756.0,1751.0,95.21880340576172,-26.812822341918945,-59.0098991394043,Left
2810.319091796875,19737,1,1711.0,1763.0,1779.0,1895.0,1661.0,1755.0,1759.0,1757.0,95.21880340576172,-26.812822341918945,-59.0098991394043,Left
2812.319091796875,19737,1,1752.0,1750.0,1799.0,1708.0,1819.0,1753.0,1763.0,1765.0,95.21880340576172,-26.812822341918945,-59.0098991394043,Left
2814.319091796875,19737,1,1801.0,1765.0,1771.0,1656.0,1816.0,1755.0,1763.0,1757.0,95.21880340576172,-26.812822341918945,-59.0098991394043,Left
2816.319091796875,19737,1,1823.0,1765.0,1769.0,1722.0,1701.0,1752.0,1763.0,1755.0,95.21880340576172,-26.812822341918945,-59.0098991394043,Left
2822.185302734375,19738,1,1813.0,1763.0,1747.0,1687.0,1709.0,1755.0,1764.0,1724.0,95.21880340576172,-26.812822341918945,-59.0098991394043,Left
2824.185302734375,19738,1,1809.0,1763.0,1741.0,1693.0,1733.0,1753.0,1764.0,1754.0,95.21880340576172,-26.812822341918945,-59.0098991394043,Left
2826.185302734375,19738,1,1770.0,1758.0,1704.0,1685.0,1721.0,1753.0,1753.0,1725.0,95.15230560302734,-27.52890968322754,-59.83352279663086,Left
2828.185302734375,19738,1,1736.0,1755.0,1767.0,1798.0,1785.0,1751.0,1764.0,1757.0,95.15230560302734,-27.52890968322754,-59.83352279663086,Left
2830.185302734375,19738,1,1702.0,1759.0,1767.0,1811.0,1705.0,1755.0,1751.0,1775.0,95.15230560302734,-27.52890968322754,-59.83352279663086,Left
2828.994140625,19739,1,1683.0,1763.0,1783.0,1769.0,1661.0,1753.0,1758.0,1756.0,95.15230560302734,-27.52890968322754,-59.83352279663086,Left
2830.994140625,19739,1,1711.0,1764.0,1785.0,1783.0,1957.0,1753.0,1763.0,1743.0,95.15230560302734,-27.52890968322754,-59.83352279663086,Left
2832.994140625,19739,1,1755.0,1753.0,1791.0,1801.0,1596.0,1747.0,1764.0,1724.0,95.15230560302734,-27.52890968322754,-59.83352279663086,Left
2834.994140625,19739,1,1797.0,1763.0,1775.0,1691.0,1811.0,1755.0,1752.0,1750.0,95.15230560302734,-27.52890968322754,-59.83352279663086,Left
2836.994140625,19739,1,1823.0,1763.0,1689.0,1650.0,1869.0,1746.0,1763.0,1740.0,95.15230560302734,-27.52890968322754,-59.83352279663086,Left
2841.313232421875,19740,1,1819.0,1763.0,1742.0,1549.0,1799.0,1753.0,1759.0,1747.0,95.15230560302734,-27.52890968322754,-59.83352279663086,Left
2843.313232421875,19740,1,1813.0,1763.0,1759.0,1577.0,1655.0,1752.0,1757.0,1757.0,95.15230560302734,-27.52890968322754,-59.83352279663086,Left
2845.313232421875,19740,1,1773.0,1763.0,1751.0,1749.0,1577.0,1753.0,1765.0,1759.0,95.15230560302734,-27.52890968322754,-59.83352279663086,Left
2847.313232421875,19740,1,1737.0,1763.0,1725.0,1875.0,1875.0,1751.0,1765.0,1725.0,95.15230560302734,-27.52890968322754,-59.83352279663086,Left
2849.313232421875,19740,1,1701.0,1764.0,1735.0,1939.0,1801.0,1753.0,1764.0,1765.0,95.15230560302734,-27.52890968322754,-59.83352279663086,Left
2849.766357421875,19741,1,1685.0,1764.0,1767.0,1878.0,1623.0,1755.0,1765.0,1736.0,95.15230560302734,-27.52890968322754,-59.83352279663086,Left
2851.766357421875,19741,1,1708.0,1762.0,1785.0,1849.0,1593.0,1754.0,1755.0,1759.0,95.15230560302734,-27.52890968322754,-59.83352279663086,Left
2853.766357421875,19741,1,1751.0,1759.0,1783.0,1837.0,1835.0,1755.0,1759.0,1747.0,95.15230560302734,-27.52890968322754,-59.83352279663086,Left
2855.766357421875,19741,1,1791.0,1763.0,1768.0,1717.0,1821.0,1753.0,1763.0,1753.0,95.15230560302734,-27.52890968322754,-59.83352279663086,Left
2857.766357421875,19741,1,1819.0,1764.0,1806.0,1717.0,1757.0,1747.0,1765.0,1754.0,95.15230560302734,-27.52890968322754,-59.83352279663086,Left
2860.294189453125,19742,1,1817.0,1751.0,1773.0,1641.0,1711.0,1739.0,1755.0,1735.0,95.15230560302734,-27.52890968322754,-59.83352279663086,Left
2862.294189453125,19742,1,1805.0,1763.0,1769.0,1619.0,1745.0,1755.0,1765.0,1769.0,95.15230560302734,-27.52890968322754,-59.83352279663086,Left
2864.294189453125,19742,1,1767.0,1755.0,1766.0,1782.0,1753.0,1755.0,1767.0,1743.0,95.15230560302734,-27.52890968322754,-59.83352279663086,Left
2866.294189453125,19742,1,1737.0,1763.0,1677.0,1823.0,1711.0,1754.0,1757.0,1724.0,95.15230560302734,-27.52890968322754,-59.83352279663086,Left
2868.294189453125,19742,1,1704.0,1763.0,1671.0,1837.0,1623.0,1747.0,1763.0,1739.0,95.15230560302734,-27.52890968322754,-59.83352279663086,Left
2870.93310546875,19743,1,1691.0,1763.0,1756.0,1819.0,1689.0,1741.0,1761.0,1735.0,95.15230560302734,-27.52890968322754,-59.83352279663086,Left
2872.93310546875,19743,1,1709.0,1763.0,1783.0,1779.0,1990.0,1752.0,1763.0,1748.0,95.15230560302734,-27.52890968322754,-59.83352279663086,Left
2874.93310546875,19743,1,1753.0,1753.0,1813.0,1678.0,1755.0,1755.0,1763.0,1765.0,95.15230560302734,-27.52890968322754,-59.83352279663086,Left
2876.93310546875,19743,1,1798.0,1763.0,1803.0,1577.0,1752.0,1757.0,1763.0,1749.0,95.15230560302734,-27.52890968322754,-59.83352279663086,Left
2878.93310546875,19743,1,1814.0,1753.0,1765.0,1541.0,1707.0,1751.0,1763.0,1749.0,95.15230560302734,-27.52890968322754,-59.83352279663086,Left
2878.2802734375,19744,1,1822.0,1767.0,1740.0,1453.0,1801.0,1752.0,1754.0,1741.0,95.15230560302734,-27.52890968322754,-59.83352279663086,Left
2880.2802734375,19744,1,1811.0,1755.0,1751.0,1639.0,1785.0,1752.0,1759.0,1758.0,95.15230560302734,-27.52890968322754,-59.83352279663086,Left
2882.2802734375,19744,1,1771.0,1757.0,1720.0,1757.0,1611.0,1753.0,1764.0,1748.0,95.15230560302734,-27.52890968322754,-59.83352279663086,Left
2884.2802734375,19744,1,1736.0,1763.0,1746.0,1867.0,1869.0,1743.0,1755.0,1759.0,95.15230560302734,-27.52890968322754,-59.83352279663086,Left
2886.2802734375,19744,1,1703.0,1765.0,1747.0,1865.0,1799.0,1755.0,1754.0,1759.0,95.38477325439453,-28.081523895263672,-60.528438568115234,Left
2890.627197265625,19745,1,1689.0,1763.0,1773.0,1813.0,1801.0,1755.0,1759.0,1751.0,95.38477325439453,-28.081523895263672,-60.528438568115234,Left
2892.627197265625,19745,1,1703.0,1765.0,1766.0,1783.0,1639.0,1751.0,1752.0,1741.0,95.38477325439453,-28.081523895263672,-60.528438568115234,Left
2894.627197265625,19745,1,1739.0,1763.0,1800.0,1819.0,1700.0,1755.0,1753.0,1753.0,95.38477325439453,-28.081523895263672,-60.528438568115234,Left
2896.627197265625,19745,1,1791.0,1764.0,1788.0,1721.0,1821.0,1743.0,1762.0,1753.0,95.38477325439453,-28.081523895263672,-60.528438568115234,Left
2898.627197265625,19745,1,1817.0,1765.0,1773.0,1734.0,1717.0,1747.0,1753.0,1750.0,95.38477325439453,-28.081523895263672,-60.528438568115234,Left
2899.876220703125,19746,1,1821.0,1753.0,1708.0,1769.0,1832.0,1748.0,1764.0,1763.0,95.38477325439453,-28.081523895263672,-60.528438568115234,Left
2901.876220703125,19746,1,1805.0,1762.0,1709.0,1738.0,1767.0,1745.0,1763.0,1726.0,95.38477325439453,-28.081523895263672,-60.528438568115234,Left
2903.876220703125,19746,1,1768.0,1765.0,1763.0,1805.0,1711.0,1752.0,1755.0,1724.0,95.38477325439453,-28.081523895263672,-60.528438568115234,Left
2905.876220703125,19746,1,1725.0,1763.0,1759.0,1866.0,1479.0,1755.0,1766.0,1779.0,95.38477325439453,-28.081523895263672,-60.528438568115234,Left
2907.876220703125,19746,1,1704.0,1767.0,1753.0,1839.0,2381.0,1753.0,1765.0,1769.0,95.38477325439453,-28.081523895263672,-60.528438568115234,Left
2910.333251953125,19747,1,1687.0,1765.0,1721.0,1925.0,1653.0,1739.0,1756.0,1726.0,95.38477325439453,-28.081523895263672,-60.528438568115234,Left
2912.333251953125,19747,1,1706.0,1762.0,1734.0,1919.0,1682.0,1754.0,1755.0,1739.0,95.38477325439453,-28.081523895263672,-60.528438568115234,Left
2914.333251953125,19747,1,1749.0,1753.0,1772.0,1821.0,1710.0,1751.0,1763.0,1727.0,95.38477325439453,-28.081523895263672,-60.528438568115234,Left
2916.333251953125,19747,1,1791.0,1753.0,1768.0,1725.0,1829.0,1755.0,1762.0,1740.0,95.38477325439453,-28.081523895263672,-60.528438568115234,Left
2918.333251953125,19747,1,1821.0,1765.0,1788.0,1714.0,1737.0,1757.0,1755.0,1753.0,95.38477325439453,-28.081523895263672,-60.528438568115234,Left
2918.199951171875,19748,1,1817.0,1763.0,1783.0,1719.0,1739.0,1737.0,1757.0,1765.0,95.38477325439453,-28.081523895263672,-60.528438568115234,Left
2920.199951171875,19748,1,1805.0,1763.0,1753.0,1741.0,1758.0,1752.0,1755.0,1759.0,95.38477325439453,-28.081523895263672,-60.528438568115234,Left
2922.199951171875,19748,1,1765.0,1761.0,1751.0,1811.0,1747.0,1755.0,1762.0,1759.0,95.38477325439453,-28.081523895263672,-60.528438568115234,Left
2924.199951171875,19748,1,1739.0,1759.0,1745.0,1877.0,1781.0,1755.0,1753.0,1763.0,95.38477325439453,-28.081523895263672,-60.528438568115234,Left
2926.199951171875,19748,1,1705.0,1764.0,1761.0,1895.0,1747.0,1755.0,1767.0,1757.0,95.38477325439453,-28.081523895263672,-60.528438568115234,Left
2929.529296875,19749,1,1691.0,1754.0,1756.0,1910.0,1635.0,1745.0,1763.0,1742.0,95.38477325439453,-28.081523895263672,-60.528438568115234,Left
2931.529296875,19749,1,1705.0,1764.0,1763.0,1837.0,1653.0,1745.0,1764.0,1739.0,95.38477325439453,-28.081523895263672,-60.528438568115234,Left
2933.529296875,19749,1,1751.0,1763.0,1802.0,1757.0,1716.0,1753.0,1765.0,1741.0,95.38477325439453,-28.081523895263672,-60.528438568115234,Left
2935.529296875,19749,1,1792.0,1755.0,1766.0,1718.0,2008.0,1743.0,1764.0,1734.0,95.38477325439453,-28.081523895263672,-60.528438568115234,Left
2937.529296875,19749,1,1820.0,1763.0,1752.0,1581.0,1933.0,1755.0,1753.0,1758.0,95.38477325439453,-28.081523895263672,-60.528438568115234,Left
2938.412109375,19750,1,1823.0,1763.0,1769.0,1559.0,1699.0,1747.0,1763.0,1751.0,95.38477325439453,-28.081523895263672,-60.528438568115234,Left
2940.412109375,19750,1,1807.0,1763.0,1739.0,1658.0,1721.0,1753.0,1759.0,1739.0,95.38477325439453,-28.081523895263672,-60.528438568115234,Left
2942.412109375,19750,1,1772.0,1752.0,1709.0,1755.0,1609.0,1755.0,1765.0,1751.0,95.38477325439453,-28.081523895263672,-60.528438568115234,Left
2944.412109375,19750,1,1738.0,1763.0,1754.0,1723.0,1790.0,1755.0,1763.0,1751.0,95.38477325439453,-28.081523895263672,-60.528438568115234,Left
2946.412109375,19750,1,1707.0,1765.0,1759.0,1726.0,1725.0,1754.0,1754.0,1763.0,95.38477325439453,-28.081523895263672,-60.528438568115234,Left
2951.55029296875,19751,1,1685.0,1754.0,1797.0,1767.0,1811.0,1752.0,1765.0,1739.0,95.38477325439453,-28.081523895263672,-60.528438568115234,Left
2953.55029296875,19751,1,1707.0,1763.0,1767.0,1653.0,1669.0,1755.0,1763.0,1741.0,95.23849487304688,-28.55376434326172,-60.664634704589844,Left
2955.55029296875,19751,1,1749.0,1753.0,1775.0,1685.0,1723.0,1743.0,1761.0,1742.0,95.23849487304688,-28.55376434326172,-60.664634704589844,Left
2957.55029296875,19751,1,1788.0,1764.0,1681.0,1687.0,1682.0,1751.0,1759.0,1753.0,95.23849487304688,-28.55376434326172,-60.664634704589844,Left
2959.55029296875,19751,1,1818.0,1767.0,1788.0,1607.0,1769.0,1753.0,1765.0,1763.0,95.23849487304688,-28.55376434326172,-60.664634704589844,Left
2959.91796875,19752,1,1822.0,1755.0,1755.0,1577.0,1591.0,1754.0,1764.0,1749.0,95.23849487304688,-28.55376434326172,-60.664634704589844,Left
2961.91796875,19752,1,1800.0,1759.0,1737.0,1584.0,2024.0,1751.0,1756.0,1723.0,95.23849487304688,-28.55376434326172,-60.664634704589844,Left
2963.91796875,19752,1,1771.0,1763.0,1755.0,1703.0,1645.0,1752.0,1755.0,1741.0,95.23849487304688,-28.55376434326172,-60.664634704589844,Left
2965.91796875,19752,1,1739.0,1766.0,1748.0,1844.0,1823.0,1752.0,1755.0,1740.0,95.23849487304688,-28.55376434326172,-60.664634704589844,Left
2967.91796875,19752,1,1700.0,1753.0,1764.0,1831.0,1741.0,1755.0,1763.0,1769.0,95.23849487304688,-28.55376434326172,-60.664634704589844,Left
2968.6640625,19753,1,1684.0,1763.0,1763.0,1863.0,1700.0,1751.0,1764.0,1763.0,95.23849487304688,-28.55376434326172,-60.664634704589844,Left
2970.6640625,19753,1,1711.0,1763.0,1766.0,1925.0,1607.0,1749.0,1764.0,1751.0,95.23849487304688,-28.55376434326172,-60.664634704589844,Left
2972.6640625,19753,1,1742.0,1761.0,1772.0,1883.0,1960.0,1746.0,1763.0,1742.0,95.23849487304688,-28.55376434326172,-60.664634704589844,Left
2974.6640625,19753,1,1791.0,1752.0,1765.0,1719.0,1832.0,1757.0,1759.0,1741.0,95.23849487304688,-28.55376434326172,-60.664634704589844,Left
2976.6640625,19753,1,1820.0,1765.0,1791.0,1769.0,1704.0,1755.0,1754.0,1747.0,95.23849487304688,-28.55376434326172,-60.664634704589844,Left
2981.216064453125,19754,1,1817.0,1751.0,1765.0,1702.0,1753.0,1755.0,1762.0,1756.0,95.23849487304688,-28.55376434326172,-60.664634704589844,Left
2983.216064453125,19754,1,1811.0,1765.0,1724.0,1709.0,1735.0,1755.0,1766.0,1759.0,95.23849487304688,-28.55376434326172,-60.664634704589844,Left
2985.216064453125,19754,1,1774.0,1753.0,1707.0,1747.0,1756.0,1755.0,1763.0,1769.0,95.23849487304688,-28.55376434326172,-60.664634704589844,Left
2987.216064453125,19754,1,1739.0,1752.0,1765.0,1926.0,1768.0,1753.0,1755.0,1751.0,95.23849487304688,-28.55376434326172,-60.664634704589844,Left
2989.216064453125,19754,1,1701.0,1762.0,1755.0,1891.0,1719.0,1746.0,1765.0,1748.0,95.23849487304688,-28.55376434326172,-60.664634704589844,Left
2993.626220703125,19755,1,1687.0,1765.0,1747.0,1883.0,1727.0,1754.0,1759.0,1745.0,95.23849487304688,-28.55376434326172,-60.664634704589844,Left
2995.626220703125,19755,1,1709.0,1765.0,1769.0,1775.0,1747.0,1755.0,1765.0,1739.0,95.23849487304688,-28.55376434326172,-60.664634704589844,Left
2997.626220703125,19755,1,1741.0,1763.0,1807.0,1771.0,1701.0,1755.0,1763.0,1751.0,95.23849487304688,-28.55376434326172,-60.664634704589844,Left
2999.626220703125,19755,1,1789.0,1765.0,1775.0,1677.0,1747.0,1756.0,1759.0,1751.0,95.23849487304688,-28.55376434326172,-60.664634704589844,Left
3001.626220703125,19755,1,1810.0,1763.0,1736.0,1645.0,1689.0,1753.0,1762.0,1743.0,95.23849487304688,-28.55376434326172,-60.664634704589844,Left
2997.555908203125,19756,1,1823.0,1761.0,1711.0,1675.0,1777.0,1751.0,1753.0,1749.0,95.23849487304688,-28.55376434326172,-60.664634704589844,Left
2999.555908203125,19756,1,1811.0,1755.0,1741.0,1813.0,1955.0,1753.0,1765.0,1757.0,95.23849487304688,-28.55376434326172,-60.664634704589844,Left
3001.555908203125,19756,1,1773.0,1764.0,1765.0,1827.0,1701.0,1752.0,1767.0,1756.0,95.23849487304688,-28.55376434326172,-60.664634704589844,Left
3003.555908203125,19756,1,1727.0,1763.0,1716.0,1865.0,1717.0,1755.0,1764.0,1739.0,95.23849487304688,-28.55376434326172,-60.664634704589844,Left
3005.555908203125,19756,1,1699.0,1763.0,1738.0,1845.0,1610.0,1755.0,1765.0,1751.0,95.23849487304688,-28.55376434326172,-60.664634704589844,Left
3010.036865234375,19757,1,1692.0,1763.0,1749.0,1810.0,1803.0,1749.0,1753.0,1725.0,95.23849487304688,-28.55376434326172,-60.664634704589844,Left
3012.036865234375,19757,1,1705.0,1766.0,1781.0,1747.0,1722.0,1755.0,1765.0,1762.0,95.23849487304688,-28.55376434326172,-60.664634704589844,Left
3014.036865234375,19757,1,1745.0,1753.0,1815.0,1775.0,1945.0,1756.0,1751.0,1764.0,95.23849487304688,-28.55376434326172,-60.664634704589844,Left
3016.036865234375,19757,1,1787.0,1765.0,1789.0,1723.0,1637.0,1755.0,1762.0,1763.0,95.23849487304688,-28.55376434326172,-60.664634704589844,Left
3018.036865234375,19757,1,1811.0,1765.0,1774.0,1669.0,1607.0,1753.0,1765.0,1748.0,95.04134368896484,-28.868492126464844,-60.80717468261719,Left
3019.653076171875,19758,1,1821.0,1765.0,1753.0,1563.0,1529.0,1743.0,1765.0,1749.0,95.04134368896484,-28.868492126464844,-60.80717468261719,Left
3021.653076171875,19758,1,1809.0,1763.0,1764.0,1646.0,1975.0,1755.0,1762.0,1737.0,95.04134368896484,-28.868492126464844,-60.80717468261719,Left
3023.653076171875,19758,1,1769.0,1764.0,1746.0,1635.0,1854.0,1753.0,1755.0,1752.0,95.04134368896484,-28.868492126464844,-60.80717468261719,Left
3025.653076171875,19758,1,1739.0,1765.0,1749.0,1771.0,1628.0,1755.0,1756.0,1747.0,95.04134368896484,-28.868492126464844,-60.80717468261719,Left
3027.653076171875,19758,1,1701.0,1759.0,1661.0,1799.0,1769.0,1754.0,1765.0,1721.0,95.04134368896484,-28.868492126464844,-60.80717468261719,Left
3032.0302734375,19759,1,1693.0,1759.0,1672.0,1771.0,1717.0,1749.0,1750.0,1741.0,95.04134368896484,-28.868492126464844,-60.80717468261719,Left
3034.0302734375,19759,1,1711.0,1763.0,1790.0,1705.0,1709.0,1753.0,1761.0,1753.0,95.04134368896484,-28.868492126464844,-60.80717468261719,Left
3036.0302734375,19759,1,1748.0,1764.0,1800.0,1724.0,1685.0,1755.0,1765.0,1757.0,95.04134368896484,-28.868492126464844,-60.80717468261719,Left
3038.0302734375,19759,1,1789.0,1765.0,1817.0,1659.0,1721.0,1753.0,1759.0,1764.0,95.04134368896484,-28.868492126464844,-60.80717468261719,Left
3040.0302734375,19759,1,1807.0,1763.0,1805.0,1765.0,1773.0,1755.0,1765.0,1759.0,95.04134368896484,-28.868492126464844,-60.80717468261719,Left
3039.26708984375,19760,1,1823.0,1763.0,1787.0,1758.0,1572.0,1753.0,1755.0,1747.0,95.04134368896484,-28.868492126464844,-60.80717468261719,Left
3041.26708984375,19760,1,1805.0,1763.0,1727.0,1657.0,1787.0,1747.0,1763.0,1763.0,95.04134368896484,-28.868492126464844,-60.80717468261719,Left
3043.26708984375,19760,1,1780.0,1767.0,1736.0,1783.0,2174.0,1742.0,1752.0,1747.0,95.04134368896484,-28.868492126464844,-60.80717468261719,Left
3045.26708984375,19760,1,1739.0,1763.0,1692.0,1741.0,1749.0,1755.0,1765.0,1735.0,95.04134368896484,-28.868492126464844,-60.80717468261719,Left
3047.26708984375,19760,1,1708.0,1764.0,1740.0,1788.0,1707.0,1751.0,1755.0,1749.0,95.04134368896484,-28.868492126464844,-60.80717468261719,Left
3048.083251953125,19761,1,1687.0,1755.0,1747.0,1845.0,1702.0,1755.0,1754.0,1743.0,95.04134368896484,-28.868492126464844,-60.80717468261719,Left
3050.083251953125,19761,1,1711.0,1762.0,1759.0,1877.0,1715.0,1747.0,1762.0,1739.0,95.04134368896484,-28.868492126464844,-60.80717468261719,Left
3052.083251953125,19761,1,1748.0,1754.0,1785.0,1797.0,1749.0,1751.0,1763.0,1751.0,95.04134368896484,-28.868492126464844,-60.80717468261719,Left
3054.083251953125,19761,1,1789.0,1762.0,1811.0,1767.0,1691.0,1751.0,1759.0,1762.0,95.04134368896484,-28.868492126464844,-60.80717468261719,Left
3056.083251953125,19761,1,1819.0,1765.0,1779.0,1741.0,1725.0,1753.0,1763.0,1772.0,95.04134368896484,-28.868492126464844,-60.80717468261719,Left
3059.863037109375,19762,1,1829.0,1756.0,1763.0,1706.0,1817.0,1755.0,1763.0,1765.0,95.04134368896484,-28.868492126464844,-60.80717468261719,Left
3061.863037109375,19762,1,1811.0,1753.0,1747.0,1791.0,1752.0,1753.0,1765.0,1748.0,95.04134368896484,-28.868492126464844,-60.80717468261719,Left
3063.863037109375,19762,1,1779.0,1762.0,1724.0,1802.0,1727.0,1754.0,1754.0,1747.0,95.04134368896484,-28.868492126464844,-60.80717468261719,Left
3065.863037109375,19762,1,1741.0,1765.0,1748.0,1879.0,1725.0,1752.0,1764.0,1746.0,95.04134368896484,-28.868492126464844,-60.80717468261719,Left
3067.863037109375,19762,1,1708.0,1763.0,1735.0,1980.0,1783.0,1748.0,1764.0,1737.0,95.04134368896484,-28.868492126464844,-60.80717468261719,Left
3069.126220703125,19763,1,1687.0,1753.0,1784.0,2065.0,1753.0,1739.0,1759.0,1721.0,95.04134368896484,-28.868492126464844,-60.80717468261719,Left
3071.126220703125,19763,1,1708.0,1757.0,1780.0,1991.0,1773.0,1746.0,1762.0,1768.0,95.04134368896484,-28.868492126464844,-60.80717468261719,Left
3073.126220703125,19763,1,1743.0,1753.0,1770.0,1849.0,1725.0,1743.0,1761.0,1772.0,95.04134368896484,-28.868492126464844,-60.80717468261719,Left
3075.126220703125,19763,1,1791.0,1753.0,1757.0,1741.0,1783.0,1743.0,1761.0,1782.0,95.04134368896484,-28.868492126464844,-60.80717468261719,Left
3077.126220703125,19763,1,1815.0,1755.0,1737.0,1726.0,1799.0,1755.0,1759.0,1750.0,95.04134368896484,-28.868492126464844,-60.80717468261719,Left
3080.413330078125,19764,1,1813.0,1763.0,1737.0,1701.0,1687.0,1753.0,1759.0,1736.0,95.04134368896484,-28.868492126464844,-60.80717468261719,Left
3082.413330078125,19764,1,1811.0,1754.0,1753.0,1637.0,1653.0,1753.0,1765.0,1741.0,95.78277587890625,-28.90250587463379,-61.06684875488281,Left
3084.413330078125,19764,1,1779.0,1756.0,1727.0,1663.0,1798.0,1745.0,1765.0,1754.0,95.78277587890625,-28.90250587463379,-61.06684875488281,Left
3086.413330078125,19764,1,1739.0,1763.0,1735.0,1804.0,1743.0,1752.0,1765.0,1757.0,95.78277587890625,-28.90250587463379,-61.06684875488281,Left
3088.413330078125,19764,1,1707.0,1755.0,1765.0,1745.0,1645.0,1755.0,1765.0,1752.0,95.78277587890625,-28.90250587463379,-61.06684875488281,Left
3088.3603515625,19765,1,1689.0,1773.0,1779.0,1805.0,1943.0,1753.0,1759.0,1739.0,95.78277587890625,-28.90250587463379,-61.06684875488281,Left
3090.3603515625,19765,1,1701.0,1762.0,1785.0,1699.0,1775.0,1754.0,1759.0,1735.0,95.78277587890625,-28.90250587463379,-61.06684875488281,Left
3092.3603515625,19765,1,1741.0,1763.0,1783.0,1735.0,1880.0,1755.0,1759.0,1753.0,95.78277587890625,-28.90250587463379,-61.06684875488281,Left
3094.3603515625,19765,1,1788.0,1763.0,1811.0,1695.0,1683.0,1749.0,1763.0,1785.0,95.78277587890625,-28.90250587463379,-61.06684875488281,Left
3096.3603515625,19765,1,1817.0,1763.0,1722.0,1559.0,2092.0,1755.0,1763.0,1735.0,95.78277587890625,-28.90250587463379,-61.06684875488281,Left
3100.31640625,19766,1,1823.0,1761.0,1716.0,1587.0,1739.0,1755.0,1753.0,1743.0,95.78277587890625,-28.90250587463379,-61.06684875488281,Left
3102.31640625,19766,1,1809.0,1752.0,1742.0,1747.0,1723.0,1756.0,1764.0,1753.0,95.78277587890625,-28.90250587463379,-61.06684875488281,Left
3104.31640625,19766,1,1775.0,1764.0,1639.0,1749.0,1716.0,1754.0,1753.0,1751.0,95.78277587890625,-28.90250587463379,-61.06684875488281,Left
3106.31640625,19766,1,1741.0,1754.0,1739.0,1708.0,1692.0,1756.0,1763.0,1747.0,95.78277587890625,-28.90250587463379,-61.06684875488281,Left
3108.31640625,19766,1,1708.0,1766.0,1739.0,1707.0,1439.0,1746.0,1759.0,1751.0,95.78277587890625,-28.90250587463379,-61.06684875488281,Left
3110.189208984375,19767,1,1688.0,1753.0,1774.0,1705.0,1887.0,1751.0,1764.0,1747.0,95.78277587890625,-28.90250587463379,-61.06684875488281,Left
3112.189208984375,19767,1,1709.0,1756.0,1788.0,1723.0,2357.0,1745.0,1765.0,1749.0,95.78277587890625,-28.90250587463379,-61.06684875488281,Left
3114.189208984375,19767,1,1745.0,1765.0,1789.0,1707.0,1615.0,1751.0,1759.0,1743.0,95.78277587890625,-28.90250587463379,-61.06684875488281,Left
3116.189208984375,19767,1,1789.0,1755.0,1806.0,1618.0,1719.0,1751.0,1759.0,1762.0,95.78277587890625,-28.90250587463379,-61.06684875488281,Left
3118.189208984375,19767,1,1817.0,1755.0,1781.0,1699.0,1686.0,1753.0,1763.0,1782.0,95.78277587890625,-28.90250587463379,-61.06684875488281,Left
3117.60205078125,19768,1,1820.0,1755.0,1769.0,1719.0,1710.0,1751.0,1765.0,1757.0,95.78277587890625,-28.90250587463379,-61.06684875488281,Left
3119.60205078125,19768,1,1812.0,1757.0,1751.0,1901.0,1769.0,1752.0,1763.0,1754.0,95.78277587890625,-28.90250587463379,-61.06684875488281,Left
3121.60205078125,19768,1,1779.0,1759.0,1748.0,1929.0,1753.0,1752.0,1763.0,1753.0,95.78277587890625,-28.90250587463379,-61.06684875488281,Left
3123.60205078125,19768,1,1740.0,1759.0,1736.0,1933.0,1771.0,1753.0,1753.0,1747.0,95.78277587890625,-28.90250587463379,-61.06684875488281,Left
3125.60205078125,19768,1,1708.0,1763.0,1736.0,1899.0,1722.0,1751.0,1765.0,1749.0,95.78277587890625,-28.90250587463379,-61.06684875488281,Left
3128.979248046875,19769,1,1683.0,1765.0,1727.0,1885.0,1739.0,1755.0,1762.0,1739.0,95.78277587890625,-28.90250587463379,-61.06684875488281,Left
3130.979248046875,19769,1,1707.0,1753.0,1773.0,1885.0,1741.0,1753.0,1761.0,1743.0,95.78277587890625,-28.90250587463379,-61.06684875488281,Left
3132.979248046875,19769,1,1735.0,1764.0,1783.0,1844.0,1766.0,1755.0,1763.0,1745.0,95.78277587890625,-28.90250587463379,-61.06684875488281,Left
3134.979248046875,19769,1,1789.0,1753.0,1781.0,1782.0,1719.0,1754.0,1763.0,1749.0,95.78277587890625,-28.90250587463379,-61.06684875488281,Left
3136.979248046875,19769,1,1819.0,1763.0,1763.0,1627.0,1787.0,1755.0,1753.0,1752.0,95.78277587890625,-28.90250587463379,-61.06684875488281,Left
3138.167236328125,19770,1,1823.0,1765.0,1775.0,1749.0,1709.0,1755.0,1763.0,1752.0,95.78277587890625,-28.90250587463379,-61.06684875488281,Left
3140.167236328125,19770,1,1811.0,1764.0,1752.0,1803.0,1701.0,1755.0,1755.0,1746.0,95.78277587890625,-28.90250587463379,-61.06684875488281,Left
3142.167236328125,19770,1,1780.0,1754.0,1739.0,1805.0,1801.0,1751.0,1764.0,1755.0,95.78277587890625,-28.90250587463379,-61.06684875488281,Left
3144.167236328125,19770,1,1739.0,1767.0,1717.0,1819.0,1855.0,1755.0,1754.0,1741.0,95.78277587890625,-28.90250587463379,-61.06684875488281,Left
3146.167236328125,19770,1,1700.0,1765.0,1735.0,1854.0,1613.0,1753.0,1753.0,1747.0,96.75751495361328,-28.64194107055664,-61.536964416503906,Left
3148.1640625,19771,1,1692.0,1741.0,1767.0,1757.0,1765.0,1753.0,1761.0,1768.0,96.75751495361328,-28.64194107055664,-61.536964416503906,Left
3150.1640625,19771,1,1707.0,1759.0,1785.0,1712.0,1875.0,1751.0,1762.0,1766.0,96.75751495361328,-28.64194107055664,-61.536964416503906,Left
3152.1640625,19771,1,1745.0,1763.0,1763.0,1691.0,1751.0,1754.0,1763.0,1740.0,96.75751495361328,-28.64194107055664,-61.536964416503906,Left
3154.1640625,19771,1,1787.0,1764.0,1813.0,1677.0,1775.0,1755.0,1753.0,1737.0,96.75751495361328,-28.64194107055664,-61.536964416503906,Left
3156.1640625,19771,1,1813.0,1763.0,1754.0,1699.0,1753.0,1753.0,1757.0,1739.0,96.75751495361328,-28.64194107055664,-61.536964416503906,Left
3159.678955078125,19772,1,1819.0,1763.0,1749.0,1691.0,1683.0,1755.0,1758.0,1751.0,96.75751495361328,-28.64194107055664,-61.536964416503906,Left
3161.678955078125,19772,1,1811.0,1763.0,1757.0,1725.0,1707.0,1756.0,1763.0,1747.0,96.75751495361328,-28.64194107055664,-61.536964416503906,Left
3163.678955078125,19772,1,1771.0,1757.0,1717.0,1755.0,1820.0,1756.0,1765.0,1735.0,96.75751495361328,-28.64194107055664,-61.536964416503906,Left
3165.678955078125,19772,1,1738.0,1763.0,1727.0,2019.0,1734.0,1745.0,1765.0,1747.0,96.75751495361328,-28.64194107055664,-61.536964416503906,Left
3167.678955078125,19772,1,1709.0,1765.0,1723.0,1885.0,1689.0,1755.0,1765.0,1753.0,96.75751495361328,-28.64194107055664,-61.536964416503906,Left
3168.67529296875,19773,1,1692.0,1755.0,1759.0,1913.0,1817.0,1751.0,1759.0,1763.0,96.75751495361328,-28.64194107055664,-61.536964416503906,Left
3170.67529296875,19773,1,1705.0,1763.0,1817.0,1839.0,1753.0,1755.0,1763.0,1737.0,96.75751495361328,-28.64194107055664,-61.536964416503906,Left
3172.67529296875,19773,1,1743.0,1763.0,1821.0,1654.0,1716.0,1753.0,1753.0,1770.0,96.75751495361328,-28.64194107055664,-61.536964416503906,Left
3174.67529296875,19773,1,1788.0,1762.0,1781.0,1647.0,1844.0,1751.0,1764.0,1759.0,96.75751495361328,-28.64194107055664,-61.536964416503906,Left
3176.67529296875,19773,1,1817.0,1764.0,1751.0,1779.0,1811.0,1746.0,1763.0,1753.0,96.75751495361328,-28.64194107055664,-61.536964416503906,Left
3179.904052734375,19774,1,1821.0,1747.0,1685.0,1763.0,1804.0,1756.0,1764.0,1747.0,96.75751495361328,-28.64194107055664,-61.536964416503906,Left
3181.904052734375,19774,1,1812.0,1765.0,1767.0,1813.0,1725.0,1755.0,1753.0,1725.0,96.75751495361328,-28.64194107055664,-61.536964416503906,Left
3183.904052734375,19774,1,1773.0,1759.0,1761.0,1714.0,1727.0,1753.0,1763.0,1741.0,96.75751495361328,-28.64194107055664,-61.536964416503906,Left
3185.904052734375,19774,1,1739.0,1761.0,1702.0,1735.0,1663.0,1755.0,1767.0,1755.0,96.75751495361328,-28.64194107055664,-61.536964416503906,Left
3187.904052734375,19774,1,1708.0,1765.0,1701.0,1689.0,1710.0,1753.0,1765.0,1747.0,96.75751495361328,-28.64194107055664,-61.536964416503906,Left
3188.275390625,19775,1,1689.0,1755.0,1737.0,1785.0,1831.0,1752.0,1751.0,1737.0,96.75751495361328,-28.64194107055664,-61.536964416503906,Left
3190.275390625,19775,1,1707.0,1762.0,1791.0,1694.0,1707.0,1755.0,1765.0,1750.0,96.75751495361328,-28.64194107055664,-61.536964416503906,Left
3192.275390625,19775,1,1743.0,1763.0,1797.0,1644.0,1701.0,1755.0,1763.0,1766.0,96.75751495361328,-28.64194107055664,-61.536964416503906,Left
3194.275390625,19775,1,1786.0,1764.0,1787.0,1651.0,1885.0,1754.0,1761.0,1743.0,96.75751495361328,-28.64194107055664,-61.536964416503906,Left
3196.275390625,19775,1,1816.0,1763.0,1769.0,1739.0,1763.0,1753.0,1763.0,1749.0,96.75751495361328,-28.64194107055664,-61.536964416503906,Left
3198.452880859375,19776,1,1827.0,1755.0,1767.0,1711.0,1710.0,1747.0,1765.0,1755.0,96.75751495361328,-28.64194107055664,-61.536964416503906,Left
3200.452880859375,19776,1,1813.0,1763.0,1761.0,1701.0,1723.0,1754.0,1765.0,1737.0,96.75751495361328,-28.64194107055664,-61.536964416503906,Left
3202.452880859375,19776,1,1781.0,1755.0,1742.0,1739.0,1770.0,1755.0,1762.0,1749.0,96.75751495361328,-28.64194107055664,-61.536964416503906,Left
3204.452880859375,19776,1,1745.0,1755.0,1749.0,1915.0,1787.0,1754.0,1765.0,1751.0,96.75751495361328,-28.64194107055664,-61.536964416503906,Left
3206.452880859375,19776,1,1708.0,1754.0,1749.0,1897.0,1773.0,1745.0,1767.0,1752.0,96.75751495361328,-28.64194107055664,-61.536964416503906,Left
3208.914306640625,19777,1,1691.0,1762.0,1741.0,1883.0,1711.0,1752.0,1759.0,1765.0,96.75751495361328,-28.64194107055664,-61.536964416503906,Left
3210.914306640625,19777,1,1707.0,1759.0,1775.0,1865.0,1755.0,1751.0,1765.0,1752.0,96.75751495361328,-28.64194107055664,-61.536964416503906,Left
3212.914306640625,19777,1,1741.0,1763.0,1779.0,1646.0,1789.0,1753.0,1752.0,1752.0,97.12966918945312,-28.522872924804688,-61.62628936767578,Left
3214.914306640625,19777,1,1785.0,1754.0,1791.0,1669.0,1752.0,1754.0,1758.0,1747.0,97.12966918945312,-28.522872924804688,-61.62628936767578,Left
3216.914306640625,19777,1,1813.0,1765.0,1759.0,1610.0,1747.0,1746.0,1755.0,1751.0,97.12966918945312,-28.522872924804688,-61.62628936767578,Left
3218.0771484375,19778,1,1827.0,1758.0,1757.0,1568.0,1741.0,1752.0,1763.0,1737.0,97.12966918945312,-28.522872924804688,-61.62628936767578,Left
3220.0771484375,19778,1,1811.0,1765.0,1737.0,1621.0,1719.0,1753.0,1763.0,1751.0,97.12966918945312,-28.522872924804688,-61.62628936767578,Left
3222.0771484375,19778,1,1781.0,1765.0,1753.0,1703.0,1775.0,1755.0,1765.0,1762.0,97.12966918945312,-28.522872924804688,-61.62628936767578,Left
3224.0771484375,19778,1,1735.0,1763.0,1740.0,1743.0,1679.0,1741.0,1763.0,1739.0,97.12966918945312,-28.522872924804688,-61.62628936767578,Left
3226.0771484375,19778,1,1707.0,1753.0,1745.0,1913.0,1802.0,1753.0,1766.0,1747.0,97.12966918945312,-28.522872924804688,-61.62628936767578,Left
3228.500244140625,19779,1,1686.0,1763.0,1767.0,1927.0,1790.0,1752.0,1762.0,1766.0,97.12966918945312,-28.522872924804688,-61.62628936767578,Left
3230.500244140625,19779,1,1695.0,1759.0,1756.0,1943.0,1767.0,1754.0,1751.0,1762.0,97.12966918945312,-28.522872924804688,-61.62628936767578,Left
3232.500244140625,19779,1,1743.0,1762.0,1770.0,1839.0,1749.0,1755.0,1753.0,1741.0,97.12966918945312,-28.522872924804688,-61.62628936767578,Left
3234.500244140625,19779,1,1788.0,1763.0,1788.0,1752.0,1721.0,1747.0,1765.0,1763.0,97.12966918945312,-28.522872924804688,-61.62628936767578,Left
3236.500244140625,19779,1,1815.0,1763.0,1803.0,1720.0,1771.0,1752.0,1765.0,1762.0,97.12966918945312,-28.522872924804688,-61.62628936767578,Left
3238.8662109375,19780,1,1819.0,1759.0,1766.0,1686.0,1721.0,1756.0,1765.0,1743.0,97.12966918945312,-28.522872924804688,-61.62628936767578,Left
3240.8662109375,19780,1,1811.0,1765.0,1759.0,1755.0,1548.0,1756.0,1764.0,1751.0,97.12966918945312,-28.522872924804688,-61.62628936767578,Left
3242.8662109375,19780,1,1779.0,1763.0,1711.0,1782.0,1880.0,1756.0,1755.0,1741.0,97.12966918945312,-28.522872924804688,-61.62628936767578,Left
3244.8662109375,19780,1,1739.0,1764.0,1702.0,1853.0,1961.0,1746.0,1765.0,1749.0,97.12966918945312,-28.522872924804688,-61.62628936767578,Left
3246.8662109375,19780,1,1709.0,1764.0,1765.0,1803.0,1671.0,1751.0,1767.0,1756.0,97.12966918945312,-28.522872924804688,-61.62628936767578,Left
3247.9091796875,19781,1,1683.0,1764.0,1767.0,1779.0,1736.0,1751.0,1766.0,1752.0,97.12966918945312,-28.522872924804688,-61.62628936767578,Left
3249.9091796875,19781,1,1705.0,1765.0,1776.0,1739.0,1724.0,1755.0,1753.0,1763.0,97.12966918945312,-28.522872924804688,-61.62628936767578,Left
3251.9091796875,19781,1,1742.0,1759.0,1714.0,1743.0,1695.0,1757.0,1764.0,1749.0,97.12966918945312,-28.522872924804688,-61.62628936767578,Left
3253.9091796875,19781,1,1789.0,1765.0,1804.0,1804.0,1765.0,1754.0,1752.0,1745.0,97.12966918945312,-28.522872924804688,-61.62628936767578,Left
3255.9091796875,19781,1,1817.0,1759.0,1745.0,1696.0,1880.0,1752.0,1763.0,1748.0,97.12966918945312,-28.522872924804688,-61.62628936767578,Left
3258.30517578125,19782,1,1798.0,1763.0,1718.0,1668.0,1737.0,1755.0,1762.0,1751.0,97.12966918945312,-28.522872924804688,-61.62628936767578,Left
3260.30517578125,19782,1,1811.0,1753.0,1759.0,1689.0,1721.0,1746.0,1763.0,1751.0,97.12966918945312,-28.522872924804688,-61.62628936767578,Left
3262.30517578125,19782,1,1779.0,1763.0,1714.0,1652.0,1723.0,1755.0,1753.0,1741.0,97.12966918945312,-28.522872924804688,-61.62628936767578,Left
3264.30517578125,19782,1,1747.0,1754.0,1757.0,1711.0,1759.0,1752.0,1763.0,1753.0,97.12966918945312,-28.522872924804688,-61.62628936767578,Left
3266.30517578125,19782,1,1709.0,1767.0,1756.0,1773.0,1767.0,1755.0,1762.0,1756.0,97.12966918945312,-28.522872924804688,-61.62628936767578,Left
3268.486328125,19783,1,1695.0,1749.0,1763.0,1803.0,1733.0,1756.0,1755.0,1743.0,97.12966918945312,-28.522872924804688,-61.62628936767578,Left
3270.486328125,19783,1,1705.0,1764.0,1790.0,1761.0,1709.0,1747.0,1753.0,1757.0,97.12966918945312,-28.522872924804688,-61.62628936767578,Left
3272.486328125,19783,1,1735.0,1763.0,1770.0,1734.0,1671.0,1755.0,1759.0,1725.0,97.12966918945312,-28.522872924804688,-61.62628936767578,Left
3274.486328125,19783,1,1786.0,1754.0,1776.0,1672.0,1902.0,1751.0,1752.0,1751.0,97.12966918945312,-28.522872924804688,-61.62628936767578,Left
3276.486328125,19783,1,1814.0,1764.0,1799.0,1631.0,1766.0,1756.0,1763.0,1756.0,97.55168151855469,-28.338733673095703,-61.5960807800293,Left
3279.650146484375,19784,1,1813.0,1755.0,1753.0,1693.0,1685.0,1742.0,1754.0,1736.0,97.55168151855469,-28.338733673095703,-61.5960807800293,Left
3281.650146484375,19784,1,1812.0,1763.0,1773.0,1723.0,1756.0,1755.0,1764.0,1768.0,97.55168151855469,-28.338733673095703,-61.5960807800293,Left
3283.650146484375,19784,1,1783.0,1763.0,1733.0,1803.0,1611.0,1755.0,1765.0,1749.0,97.55168151855469,-28.338733673095703,-61.5960807800293,Left
3285.650146484375,19784,1,1746.0,1763.0,1692.0,1842.0,2027.0,1751.0,1763.0,1755.0,97.55168151855469,-28.338733673095703,-61.5960807800293,Left
3287.650146484375,19784,1,1709.0,1765.0,1739.0,1951.0,1801.0,1755.0,1767.0,1758.0,97.55168151855469,-28.338733673095703,-61.5960807800293,Left
3289.003173828125,19785,1,1689.0,1755.0,1779.0,1968.0,1740.0,1755.0,1759.0,1747.0,97.55168151855469,-28.338733673095703,-61.5960807800293,Left
3291.003173828125,19785,1,1706.0,1762.0,1785.0,1787.0,1751.0,1747.0,1765.0,1764.0,97.55168151855469,-28.338733673095703,-61.5960807800293,Left
3293.003173828125,19785,1,1735.0,1763.0,1772.0,1723.0,1653.0,1753.0,1759.0,1721.0,97.55168151855469,-28.338733673095703,-61.5960807800293,Left
3295.003173828125,19785,1,1784.0,1764.0,1764.0,1628.0,1705.0,1755.0,1753.0,1753.0,97.55168151855469,-28.338733673095703,-61.5960807800293,Left
3297.003173828125,19785,1,1815.0,1765.0,1753.0,1612.0,1772.0,1755.0,1752.0,1725.0,97.55168151855469,-28.338733673095703,-61.5960807800293,Left
3299.760009765625,19786,1,1815.0,1753.0,1757.0,1635.0,1807.0,1755.0,1753.0,1759.0,97.55168151855469,-28.338733673095703,-61.5960807800293,Left
3301.760009765625,19786,1,1813.0,1763.0,1723.0,1768.0,1639.0,1755.0,1765.0,1749.0,97.55168151855469,-28.338733673095703,-61.5960807800293,Left
3303.760009765625,19786,1,1784.0,1765.0,1737.0,1785.0,1722.0,1743.0,1763.0,1752.0,97.55168151855469,-28.338733673095703,-61.5960807800293,Left
3305.760009765625,19786,1,1735.0,1764.0,1739.0,1892.0,1849.0,1742.0,1763.0,1748.0,97.55168151855469,-28.338733673095703,-61.5960807800293,Left
3307.760009765625,19786,1,1709.0,1763.0,1753.0,1931.0,1755.0,1751.0,1763.0,1763.0,97.55168151855469,-28.338733673095703,-61.5960807800293,Left
3308.6630859375,19787,1,1693.0,1758.0,1763.0,1895.0,1737.0,1752.0,1764.0,1753.0,97.55168151855469,-28.338733673095703,-61.5960807800293,Left
3310.6630859375,19787,1,1701.0,1752.0,1770.0,1834.0,1755.0,1755.0,1764.0,1747.0,97.55168151855469,-28.338733673095703,-61.5960807800293,Left
3312.6630859375,19787,1,1739.0,1761.0,1803.0,1812.0,1676.0,1755.0,1763.0,1747.0,97.55168151855469,-28.338733673095703,-61.5960807800293,Left
3314.6630859375,19787,1,1783.0,1763.0,1781.0,1596.0,1771.0,1752.0,1759.0,1748.0,97.55168151855469,-28.338733673095703,-61.5960807800293,Left
3316.6630859375,19787,1,1807.0,1765.0,1782.0,1690.0,1822.0,1756.0,1765.0,1763.0,97.55168151855469,-28.338733673095703,-61.5960807800293,Left
3318.298095703125,19788,1,1823.0,1765.0,1772.0,1673.0,1704.0,1756.0,1761.0,1757.0,97.55168151855469,-28.338733673095703,-61.5960807800293,Left
3320.298095703125,19788,1,1815.0,1765.0,1755.0,1797.0,1747.0,1751.0,1765.0,1756.0,97.55168151855469,-28.338733673095703,-61.5960807800293,Left
3322.298095703125,19788,1,1785.0,1763.0,1741.0,1645.0,1753.0,1754.0,1763.0,1753.0,97.55168151855469,-28.338733673095703,-61.5960807800293,Left
3324.298095703125,19788,1,1748.0,1765.0,1678.0,1696.0,1753.0,1756.0,1763.0,1727.0,97.55168151855469,-28.338733673095703,-61.5960807800293,Left
3326.298095703125,19788,1,1715.0,1763.0,1711.0,1798.0,1705.0,1753.0,1767.0,1756.0,97.55168151855469,-28.338733673095703,-61.5960807800293,Left
3328.13525390625,19789,1,1679.0,1764.0,1757.0,1861.0,1755.0,1755.0,1763.0,1763.0,97.55168151855469,-28.338733673095703,-61.5960807800293,Left
3330.13525390625,19789,1,1707.0,1755.0,1773.0,1805.0,1765.0,1747.0,1764.0,1737.0,97.55168151855469,-28.338733673095703,-61.5960807800293,Left
3332.13525390625,19789,1,1739.0,1762.0,1801.0,1751.0,1756.0,1755.0,1753.0,1749.0,97.55168151855469,-28.338733673095703,-61.5960807800293,Left
3334.13525390625,19789,1,1786.0,1753.0,1803.0,1801.0,1783.0,1753.0,1761.0,1747.0,97.55168151855469,-28.338733673095703,-61.5960807800293,Left
3336.13525390625,19789,1,1816.0,1765.0,1791.0,1791.0,1740.0,1753.0,1759.0,1767.0,97.55168151855469,-28.338733673095703,-61.5960807800293,Left
3339.136962890625,19790,1,1816.0,1763.0,1771.0,1661.0,1719.0,1757.0,1764.0,1755.0,97.55168151855469,-28.338733673095703,-61.5960807800293,Left
3341.136962890625,19790,1,1814.0,1765.0,1737.0,1675.0,1549.0,1753.0,1762.0,1727.0,97.59587097167969,-28.197383880615234,-61.80131912231445,Left
3343.136962890625,19790,1,1785.0,1763.0,1717.0,1709.0,1984.0,1754.0,1763.0,1751.0,97.59587097167969,-28.197383880615234,-61.80131912231445,Left
3345.136962890625,19790,1,1745.0,1753.0,1662.0,1640.0,1823.0,1751.0,1754.0,1749.0,97.59587097167969,-28.197383880615234,-61.80131912231445,Left
3347.136962890625,19790,1,1711.0,1763.0,1737.0,1659.0,1718.0,1754.0,1764.0,1757.0,97.59587097167969,-28.197383880615234,-61.80131912231445,Left
3348.503173828125,19791,1,1671.0,1763.0,1764.0,1827.0,1767.0,1751.0,1763.0,1752.0,97.59587097167969,-28.197383880615234,-61.80131912231445,Left
3350.503173828125,19791,1,1699.0,1765.0,1787.0,1819.0,1727.0,1752.0,1756.0,1751.0,97.59587097167969,-28.197383880615234,-61.80131912231445,Left
3352.503173828125,19791,1,1739.0,1767.0,1798.0,1693.0,1768.0,1743.0,1757.0,1749.0,97.59587097167969,-28.197383880615234,-61.80131912231445,Left
3354.503173828125,19791,1,1785.0,1753.0,1800.0,1705.0,1707.0,1743.0,1764.0,1737.0,97.59587097167969,-28.197383880615234,-61.80131912231445,Left
3356.503173828125,19791,1,1815.0,1763.0,1779.0,1589.0,1757.0,1755.0,1752.0,1751.0,97.59587097167969,-28.197383880615234,-61.80131912231445,Left
3358.593017578125,19792,1,1827.0,1763.0,1765.0,1511.0,1781.0,1757.0,1754.0,1759.0,97.59587097167969,-28.197383880615234,-61.80131912231445,Left
3360.593017578125,19792,1,1805.0,1763.0,1737.0,1653.0,1751.0,1756.0,1763.0,1753.0,97.59587097167969,-28.197383880615234,-61.80131912231445,Left
3362.593017578125,19792,1,1783.0,1763.0,1733.0,1691.0,1694.0,1743.0,1764.0,1747.0,97.59587097167969,-28.197383880615234,-61.80131912231445,Left
3364.593017578125,19792,1,1741.0,1753.0,1699.0,1811.0,1756.0,1743.0,1752.0,1741.0,97.59587097167969,-28.197383880615234,-61.80131912231445,Left
3366.593017578125,19792,1,1711.0,1763.0,1747.0,1883.0,1765.0,1755.0,1763.0,1740.0,97.59587097167969,-28.197383880615234,-61.80131912231445,Left
3368.966064453125,19793,1,1687.0,1752.0,1769.0,1845.0,1747.0,1745.0,1762.0,1749.0,97.59587097167969,-28.197383880615234,-61.80131912231445,Left
3370.966064453125,19793,1,1707.0,1762.0,1775.0,1779.0,1788.0,1752.0,1763.0,1752.0,97.59587097167969,-28.197383880615234,-61.80131912231445,Left
3372.966064453125,19793,1,1737.0,1763.0,1790.0,1725.0,1765.0,1755.0,1752.0,1755.0,97.59587097167969,-28.197383880615234,-61.80131912231445,Left
3374.966064453125,19793,1,1785.0,1763.0,1781.0,1647.0,1724.0,1751.0,1763.0,1752.0,97.59587097167969,-28.197383880615234,-61.80131912231445,Left
3376.966064453125,19793,1,1815.0,1765.0,1763.0,1749.0,1703.0,1755.0,1759.0,1755.0,97.59587097167969,-28.197383880615234,-61.80131912231445,Left
3378.2490234375,19794,1,1823.0,1753.0,1775.0,1773.0,1775.0,1753.0,1759.0,1749.0,97.59587097167969,-28.197383880615234,-61.80131912231445,Left
3380.2490234375,19794,1,1804.0,1752.0,1749.0,1839.0,1783.0,1747.0,1764.0,1755.0,97.59587097167969,-28.197383880615234,-61.80131912231445,Left
3382.2490234375,19794,1,1784.0,1753.0,1727.0,1863.0,1715.0,1757.0,1763.0,1753.0,97.59587097167969,-28.197383880615234,-61.80131912231445,Left
3384.2490234375,19794,1,1741.0,1763.0,1735.0,1865.0,1727.0,1747.0,1761.0,1742.0,97.59587097167969,-28.197383880615234,-61.80131912231445,Left
3386.2490234375,19794,1,1709.0,1763.0,1723.0,1853.0,1791.0,1747.0,1754.0,1743.0,97.59587097167969,-28.197383880615234,-61.80131912231445,Left
3388.333984375,19795,1,1691.0,1761.0,1781.0,1939.0,1758.0,1745.0,1765.0,1756.0,97.59587097167969,-28.197383880615234,-61.80131912231445,Left
3390.333984375,19795,1,1703.0,1762.0,1747.0,1845.0,1691.0,1757.0,1753.0,1745.0,97.59587097167969,-28.197383880615234,-61.80131912231445,Left
3392.333984375,19795,1,1725.0,1767.0,1721.0,1831.0,1716.0,1757.0,1763.0,1747.0,97.59587097167969,-28.197383880615234,-61.80131912231445,Left
3394.333984375,19795,1,1784.0,1763.0,1835.0,1782.0,2137.0,1752.0,1757.0,1747.0,97.59587097167969,-28.197383880615234,-61.80131912231445,Left
3396.333984375,19795,1,1815.0,1765.0,1845.0,1709.0,1755.0,1751.0,1765.0,1753.0,97.59587097167969,-28.197383880615234,-61.80131912231445,Left
3398.35595703125,19796,1,1823.0,1765.0,1691.0,1711.0,1696.0,1757.0,1753.0,1735.0,97.59587097167969,-28.197383880615234,-61.80131912231445,Left
3400.35595703125,19796,1,1814.0,1759.0,1695.0,1689.0,1736.0,1756.0,1761.0,1747.0,97.59587097167969,-28.197383880615234,-61.80131912231445,Left
3402.35595703125,19796,1,1784.0,1757.0,1721.0,1692.0,1685.0,1755.0,1765.0,1751.0,97.59587097167969,-28.197383880615234,-61.80131912231445,Left
3404.35595703125,19796,1,1743.0,1763.0,1737.0,1747.0,1738.0,1754.0,1765.0,1743.0,97.59587097167969,-28.197383880615234,-61.80131912231445,Left
3406.35595703125,19796,1,1710.0,1757.0,1757.0,1819.0,1749.0,1749.0,1767.0,1747.0,97.34963989257812,-27.918319702148438,-61.887123107910156,Left
3408.89599609375,19797,1,1688.0,1765.0,1767.0,1907.0,1836.0,1752.0,1759.0,1741.0,97.34963989257812,-27.918319702148438,-61.887123107910156,Left
3410.89599609375,19797,1,1695.0,1765.0,1784.0,1833.0,1766.0,1751.0,1765.0,1735.0,97.34963989257812,-27.918319702148438,-61.887123107910156,Left
3412.89599609375,19797,1,1740.0,1763.0,1773.0,1751.0,1831.0,1752.0,1761.0,1775.0,97.34963989257812,-27.918319702148438,-61.887123107910156,Left
3414.89599609375,19797,1,1787.0,1759.0,1810.0,1723.0,1723.0,1751.0,1764.0,1779.0,97.34963989257812,-27.918319702148438,-61.887123107910156,Left
3416.89599609375,19797,1,1815.0,1764.0,1785.0,1642.0,1723.0,1755.0,1763.0,1763.0,97.34963989257812,-27.918319702148438,-61.887123107910156,Left
3419.71826171875,19798,1,1829.0,1756.0,1762.0,1578.0,1723.0,1746.0,1763.0,1740.0,97.34963989257812,-27.918319702148438,-61.887123107910156,Left
3421.71826171875,19798,1,1816.0,1753.0,1749.0,1683.0,1754.0,1755.0,1759.0,1739.0,97.34963989257812,-27.918319702148438,-61.887123107910156,Left
3423.71826171875,19798,1,1785.0,1763.0,1733.0,1669.0,1747.0,1755.0,1767.0,1723.0,97.34963989257812,-27.918319702148438,-61.887123107910156,Left
3425.71826171875,19798,1,1745.0,1754.0,1705.0,1816.0,1743.0,1753.0,1758.0,1745.0,97.34963989257812,-27.918319702148438,-61.887123107910156,Left
3427.71826171875,19798,1,1711.0,1762.0,1692.0,1827.0,1758.0,1749.0,1765.0,1741.0,97.34963989257812,-27.918319702148438,-61.887123107910156,Left
3431.63916015625,19799,1,1685.0,1765.0,1763.0,1900.0,1725.0,1739.0,1759.0,1763.0,97.34963989257812,-27.918319702148438,-61.887123107910156,Left
3433.63916015625,19799,1,1706.0,1765.0,1812.0,1949.0,1740.0,1752.0,1761.0,1763.0,97.34963989257812,-27.918319702148438,-61.887123107910156,Left
3435.63916015625,19799,1,1738.0,1762.0,1807.0,1843.0,1773.0,1754.0,1763.0,1763.0,97.34963989257812,-27.918319702148438,-61.887123107910156,Left
3437.63916015625,19799,1,1785.0,1753.0,1796.0,1673.0,1759.0,1753.0,1757.0,1753.0,97.34963989257812,-27.918319702148438,-61.887123107910156,Left
3439.63916015625,19799,1,1815.0,1753.0,1749.0,1677.0,1688.0,1754.0,1762.0,1753.0,97.34963989257812,-27.918319702148438,-61.887123107910156,Left
3442.5302734375,19800,1,1821.0,1762.0,1708.0,1723.0,1759.0,1743.0,1763.0,1737.0,97.34963989257812,-27.918319702148438,-61.887123107910156,Left
3444.5302734375,19800,1,1817.0,1757.0,1717.0,1743.0,1779.0,1742.0,1767.0,1741.0,97.34963989257812,-27.918319702148438,-61.887123107910156,Left
3446.5302734375,19800,1,1785.0,1758.0,1765.0,1757.0,1757.0,1754.0,1763.0,1743.0,97.34963989257812,-27.918319702148438,-61.887123107910156,Left
3448.5302734375,19800,1,1741.0,1755.0,1749.0,1893.0,1661.0,1752.0,1763.0,1749.0,97.34963989257812,-27.918319702148438,-61.887123107910156,Left
3450.5302734375,19800,1,1710.0,1765.0,1740.0,1884.0,1785.0,1753.0,1762.0,1747.0,97.34963989257812,-27.918319702148438,-61.887123107910156,Left
3449.648193359375,19801,1,1683.0,1758.0,1769.0,1800.0,1676.0,1739.0,1751.0,1739.0,97.34963989257812,-27.918319702148438,-61.887123107910156,Left
3451.648193359375,19801,1,1705.0,1751.0,1789.0,1679.0,1877.0,1753.0,1764.0,1767.0,97.34963989257812,-27.918319702148438,-61.887123107910156,Left
3453.648193359375,19801,1,1739.0,1756.0,1787.0,1693.0,1801.0,1756.0,1753.0,1742.0,97.34963989257812,-27.918319702148438,-61.887123107910156,Left
3455.648193359375,19801,1,1787.0,1767.0,1783.0,1618.0,1753.0,1755.0,1763.0,1741.0,97.34963989257812,-27.918319702148438,-61.887123107910156,Left
3457.648193359375,19801,1,1814.0,1762.0,1775.0,1657.0,1739.0,1755.0,1765.0,1757.0,97.34963989257812,-27.918319702148438,-61.887123107910156,Left
3460.627197265625,19802,1,1829.0,1748.0,1757.0,1682.0,1711.0,1750.0,1757.0,1766.0,97.34963989257812,-27.918319702148438,-61.887123107910156,Left
3462.627197265625,19802,1,1813.0,1765.0,1743.0,1733.0,1735.0,1755.0,1763.0,1741.0,97.34963989257812,-27.918319702148438,-61.887123107910156,Left
3464.627197265625,19802,1,1775.0,1763.0,1737.0,1868.0,1751.0,1751.0,1763.0,1755.0,97.34963989257812,-27.918319702148438,-61.887123107910156,Left
3466.627197265625,19802,1,1741.0,1763.0,1695.0,1910.0,1783.0,1751.0,1765.0,1735.0,97.34963989257812,-27.918319702148438,-61.887123107910156,Left
3468.627197265625,19802,1,1711.0,1765.0,1658.0,1929.0,1771.0,1753.0,1765.0,1739.0,97.34963989257812,-27.918319702148438,-61.887123107910156,Left
3468.690185546875,19803,1,1679.0,1761.0,1767.0,1847.0,1683.0,1755.0,1763.0,1753.0,97.34963989257812,-27.918319702148438,-61.887123107910156,Left
3470.690185546875,19803,1,1702.0,1763.0,1773.0,1781.0,1746.0,1755.0,1759.0,1740.0,97.19989776611328,-27.613506317138672,-61.86758804321289,Left
3472.690185546875,19803,1,1737.0,1765.0,1789.0,1848.0,1759.0,1756.0,1752.0,1747.0,97.19989776611328,-27.613506317138672,-61.86758804321289,Left
3474.690185546875,19803,1,1785.0,1763.0,1812.0,1801.0,1578.0,1755.0,1762.0,1781.0,97.19989776611328,-27.613506317138672,-61.86758804321289,Left
3476.690185546875,19803,1,1815.0,1764.0,1785.0,1752.0,2025.0,1753.0,1761.0,1775.0,97.19989776611328,-27.613506317138672,-61.86758804321289,Left
3480.5302734375,19804,1,1823.0,1755.0,1757.0,1689.0,1802.0,1751.0,1763.0,1757.0,97.19989776611328,-27.613506317138672,-61.86758804321289,Left
3482.5302734375,19804,1,1816.0,1754.0,1757.0,1716.0,1811.0,1752.0,1763.0,1748.0,97.19989776611328,-27.613506317138672,-61.86758804321289,Left
3484.5302734375,19804,1,1789.0,1754.0,1743.0,1635.0,1768.0,1752.0,1765.0,1745.0,97.19989776611328,-27.613506317138672,-61.86758804321289,Left
3486.5302734375,19804,1,1749.0,1766.0,1702.0,1723.0,1734.0,1756.0,1763.0,1751.0,97.19989776611328,-27.613506317138672,-61.86758804321289,Left
3488.5302734375,19804,1,1715.0,1754.0,1726.0,1868.0,1721.0,1755.0,1763.0,1741.0,97.19989776611328,-27.613506317138672,-61.86758804321289,Left
3489.879150390625,19805,1,1687.0,1762.0,1726.0,1811.0,1663.0,1753.0,1749.0,1749.0,97.19989776611328,-27.613506317138672,-61.86758804321289,Left
3491.879150390625,19805,1,1694.0,1759.0,1781.0,1876.0,1741.0,1752.0,1763.0,1758.0,97.19989776611328,-27.613506317138672,-61.86758804321289,Left
3493.879150390625,19805,1,1733.0,1753.0,1799.0,1892.0,1773.0,1752.0,1762.0,1751.0,97.19989776611328,-27.613506317138672,-61.86758804321289,Left
3495.879150390625,19805,1,1783.0,1765.0,1800.0,1798.0,1739.0,1755.0,1763.0,1752.0,97.19989776611328,-27.613506317138672,-61.86758804321289,Left
3497.879150390625,19805,1,1809.0,1753.0,1765.0,1631.0,1722.0,1753.0,1763.0,1739.0,97.19989776611328,-27.613506317138672,-61.86758804321289,Left
3499.76513671875,19806,1,1821.0,1765.0,1756.0,1673.0,1693.0,1753.0,1749.0,1740.0,97.19989776611328,-27.613506317138672,-61.86758804321289,Left
3501.76513671875,19806,1,1813.0,1757.0,1769.0,1705.0,1758.0,1753.0,1763.0,1766.0,97.19989776611328,-27.613506317138672,-61.86758804321289,Left
3503.76513671875,19806,1,1789.0,1767.0,1737.0,1689.0,1779.0,1753.0,1765.0,1751.0,97.19989776611328,-27.613506317138672,-61.86758804321289,Left
3505.76513671875,19806,1,1739.0,1763.0,1715.0,1751.0,1767.0,1757.0,1767.0,1749.0,97.19989776611328,-27.613506317138672,-61.86758804321289,Left
3507.76513671875,19806,1,1705.0,1763.0,1758.0,1816.0,1743.0,1753.0,1761.0,1751.0,97.19989776611328,-27.613506317138672,-61.86758804321289,Left
3510.588134765625,19807,1,1685.0,1756.0,1721.0,1854.0,1780.0,1755.0,1759.0,1748.0,97.19989776611328,-27.613506317138672,-61.86758804321289,Left
3512.588134765625,19807,1,1693.0,1765.0,1728.0,1831.0,1739.0,1755.0,1761.0,1727.0,97.19989776611328,-27.613506317138672,-61.86758804321289,Left
3514.588134765625,19807,1,1723.0,1765.0,1797.0,1767.0,1747.0,1751.0,1765.0,1749.0,97.19989776611328,-27.613506317138672,-61.86758804321289,Left
3516.588134765625,19807,1,1779.0,1759.0,1813.0,1674.0,1751.0,1754.0,1763.0,1726.0,97.19989776611328,-27.613506317138672,-61.86758804321289,Left
3518.588134765625,19807,1,1803.0,1764.0,1784.0,1724.0,1771.0,1756.0,1764.0,1753.0,97.19989776611328,-27.613506317138672,-61.86758804321289,Left
3520.28515625,19808,1,1828.0,1765.0,1725.0,1774.0,1775.0,1747.0,1753.0,1764.0,97.19989776611328,-27.613506317138672,-61.86758804321289,Left
3522.28515625,19808,1,1815.0,1753.0,1715.0,1813.0,1828.0,1743.0,1765.0,1755.0,97.19989776611328,-27.613506317138672,-61.86758804321289,Left
3524.28515625,19808,1,1786.0,1762.0,1751.0,1833.0,1671.0,1753.0,1763.0,1752.0,97.19989776611328,-27.613506317138672,-61.86758804321289,Left
3526.28515625,19808,1,1748.0,1765.0,1767.0,1756.0,1811.0,1755.0,1764.0,1757.0,97.19989776611328,-27.613506317138672,-61.86758804321289,Left
3528.28515625,19808,1,1711.0,1765.0,1753.0,1719.0,1704.0,1755.0,1763.0,1763.0,97.19989776611328,-27.613506317138672,-61.86758804321289,Left
3528.630126953125,19809,1,1689.0,1757.0,1767.0,1783.0,1723.0,1746.0,1759.0,1749.0,97.19989776611328,-27.613506317138672,-61.86758804321289,Left
3530.630126953125,19809,1,1695.0,1751.0,1757.0,1769.0,1995.0,1753.0,1759.0,1748.0,97.19989776611328,-27.613506317138672,-61.86758804321289,Left
3532.630126953125,19809,1,1735.0,1764.0,1777.0,1775.0,1671.0,1747.0,1764.0,1747.0,97.19989776611328,-27.613506317138672,-61.86758804321289,Left
3534.630126953125,19809,1,1785.0,1755.0,1819.0,1699.0,1782.0,1746.0,1764.0,1745.0,97.19989776611328,-27.613506317138672,-61.86758804321289,Left
3536.630126953125,19809,1,1807.0,1763.0,1782.0,1770.0,1783.0,1751.0,1752.0,1752.0,97.34317016601562,-27.2176513671875,-61.87303924560547,Left
3543.963134765625,19810,1,1821.0,1764.0,1741.0,1738.0,1725.0,1753.0,1752.0,1748.0,97.34317016601562,-27.2176513671875,-61.87303924560547,Left
3545.963134765625,19810,1,1806.0,1763.0,1719.0,1739.0,1898.0,1754.0,1759.0,1736.0,97.34317016601562,-27.2176513671875,-61.87303924560547,Left
3547.963134765625,19810,1,1787.0,1764.0,1737.0,1790.0,1645.0,1756.0,1759.0,1751.0,97.34317016601562,-27.2176513671875,-61.87303924560547,Left
3549.963134765625,19810,1,1751.0,1765.0,1725.0,1735.0,1773.0,1751.0,1763.0,1755.0,97.34317016601562,-27.2176513671875,-61.87303924560547,Left
3551.963134765625,19810,1,1711.0,1763.0,1755.0,1742.0,1737.0,1752.0,1763.0,1749.0,97.34317016601562,-27.2176513671875,-61.87303924560547,Left
3548.273193359375,19811,1,1685.0,1750.0,1767.0,1679.0,1709.0,1757.0,1764.0,1737.0,97.34317016601562,-27.2176513671875,-61.87303924560547,Left
3550.273193359375,19811,1,1706.0,1753.0,1779.0,1737.0,1741.0,1751.0,1761.0,1756.0,97.34317016601562,-27.2176513671875,-61.87303924560547,Left
3552.273193359375,19811,1,1737.0,1759.0,1787.0,1685.0,1773.0,1747.0,1762.0,1749.0,97.34317016601562,-27.2176513671875,-61.87303924560547,Left
3554.273193359375,19811,1,1783.0,1759.0,1775.0,1716.0,1745.0,1755.0,1755.0,1743.0,97.34317016601562,-27.2176513671875,-61.87303924560547,Left
3556.273193359375,19811,1,1817.0,1762.0,1755.0,1671.0,1755.0,1755.0,1764.0,1740.0,97.34317016601562,-27.2176513671875,-61.87303924560547,Left
3560.50732421875,19812,1,1821.0,1754.0,1750.0,1768.0,1755.0,1755.0,1754.0,1752.0,97.34317016601562,-27.2176513671875,-61.87303924560547,Left
3562.50732421875,19812,1,1816.0,1764.0,1741.0,1790.0,1715.0,1755.0,1763.0,1737.0,97.34317016601562,-27.2176513671875,-61.87303924560547,Left
3564.50732421875,19812,1,1787.0,1763.0,1718.0,1748.0,1747.0,1756.0,1757.0,1755.0,97.34317016601562,-27.2176513671875,-61.87303924560547,Left
3566.50732421875,19812,1,1748.0,1764.0,1728.0,1868.0,1749.0,1755.0,1755.0,1747.0,97.34317016601562,-27.2176513671875,-61.87303924560547,Left
3568.50732421875,19812,1,1718.0,1765.0,1755.0,1891.0,1757.0,1757.0,1763.0,1737.0,97.34317016601562,-27.2176513671875,-61.87303924560547,Left
3571.111083984375,19813,1,1691.0,1758.0,1766.0,1957.0,1747.0,1751.0,1765.0,1753.0,97.34317016601562,-27.2176513671875,-61.87303924560547,Left
3573.111083984375,19813,1,1704.0,1748.0,1756.0,1949.0,1757.0,1754.0,1761.0,1726.0,97.34317016601562,-27.2176513671875,-61.87303924560547,Left
3575.111083984375,19813,1,1733.0,1762.0,1781.0,1834.0,1787.0,1753.0,1763.0,1742.0,97.34317016601562,-27.2176513671875,-61.87303924560547,Left
3577.111083984375,19813,1,1781.0,1764.0,1799.0,1775.0,1711.0,1752.0,1764.0,1779.0,97.34317016601562,-27.2176513671875,-61.87303924560547,Left
3579.111083984375,19813,1,1813.0,1763.0,1786.0,1661.0,1773.0,1755.0,1765.0,1767.0,97.34317016601562,-27.2176513671875,-61.87303924560547,Left
3580.4521484375,19814,1,1821.0,1757.0,1753.0,1573.0,1754.0,1751.0,1755.0,1748.0,97.34317016601562,-27.2176513671875,-61.87303924560547,Left
3582.4521484375,19814,1,1815.0,1765.0,1735.0,1708.0,1725.0,1755.0,1761.0,1747.0,97.34317016601562,-27.2176513671875,-61.87303924560547,Left
3584.4521484375,19814,1,1783.0,1765.0,1709.0,1798.0,1741.0,1747.0,1763.0,1751.0,97.34317016601562,-27.2176513671875,-61.87303924560547,Left
3586.4521484375,19814,1,1747.0,1764.0,1711.0,1820.0,1688.0,1753.0,1763.0,1749.0,97.34317016601562,-27.2176513671875,-61.87303924560547,Left
3588.4521484375,19814,1,1716.0,1753.0,1754.0,1801.0,1749.0,1751.0,1763.0,1750.0,97.34317016601562,-27.2176513671875,-61.87303924560547,Left
3589.1640625,19815,1,1687.0,1763.0,1738.0,1815.0,1780.0,1755.0,1753.0,1735.0,97.34317016601562,-27.2176513671875,-61.87303924560547,Left
3591.1640625,19815,1,1704.0,1757.0,1770.0,1753.0,1706.0,1753.0,1762.0,1758.0,97.34317016601562,-27.2176513671875,-61.87303924560547,Left
3593.1640625,19815,1,1735.0,1759.0,1792.0,1626.0,1727.0,1753.0,1763.0,1753.0,97.34317016601562,-27.2176513671875,-61.87303924560547,Left
3595.1640625,19815,1,1780.0,1761.0,1781.0,1503.0,1851.0,1753.0,1765.0,1747.0,97.34317016601562,-27.2176513671875,-61.87303924560547,Left
3597.1640625,19815,1,1812.0,1763.0,1781.0,1513.0,1739.0,1753.0,1763.0,1753.0,97.34317016601562,-27.2176513671875,-61.87303924560547,Left
3598.92724609375,19816,1,1831.0,1763.0,1768.0,1587.0,1720.0,1755.0,1763.0,1751.0,97.34317016601562,-27.2176513671875,-61.87303924560547,Left
3600.92724609375,19816,1,1817.0,1756.0,1739.0,1631.0,1704.0,1755.0,1763.0,1751.0,97.20142364501953,-26.899555206298828,-61.88962173461914,Left
3602.92724609375,19816,1,1785.0,1767.0,1747.0,1659.0,1800.0,1755.0,1764.0,1753.0,97.20142364501953,-26.899555206298828,-61.88962173461914,Left
3604.92724609375,19816,1,1746.0,1755.0,1742.0,1715.0,1721.0,1753.0,1763.0,1759.0,97.20142364501953,-26.899555206298828,-61.88962173461914,Left
3606.92724609375,19816,1,1715.0,1765.0,1750.0,1755.0,1707.0,1753.0,1767.0,1753.0,97.20142364501953,-26.899555206298828,-61.88962173461914,Left
3610.345458984375,19817,1,1688.0,1765.0,1772.0,1839.0,1721.0,1749.0,1763.0,1748.0,97.20142364501953,-26.899555206298828,-61.88962173461914,Left
3612.345458984375,19817,1,1699.0,1763.0,1757.0,1719.0,1877.0,1752.0,1765.0,1753.0,97.20142364501953,-26.899555206298828,-61.88962173461914,Left
3614.345458984375,19817,1,1720.0,1754.0,1767.0,1743.0,1674.0,1755.0,1761.0,1751.0,97.20142364501953,-26.899555206298828,-61.88962173461914,Left
3616.345458984375,19817,1,1781.0,1765.0,1805.0,1755.0,1709.0,1743.0,1752.0,1752.0,97.20142364501953,-26.899555206298828,-61.88962173461914,Left
3618.345458984375,19817,1,1813.0,1762.0,1763.0,1771.0,1749.0,1754.0,1758.0,1747.0,97.20142364501953,-26.899555206298828,-61.88962173461914,Left
3621.02734375,19818,1,1827.0,1757.0,1702.0,1720.0,1757.0,1751.0,1755.0,1747.0,97.20142364501953,-26.899555206298828,-61.88962173461914,Left
3623.02734375,19818,1,1805.0,1765.0,1746.0,1699.0,1763.0,1745.0,1763.0,1747.0,97.20142364501953,-26.899555206298828,-61.88962173461914,Left
3625.02734375,19818,1,1783.0,1765.0,1743.0,1685.0,1720.0,1746.0,1759.0,1737.0,97.20142364501953,-26.899555206298828,-61.88962173461914,Left
3627.02734375,19818,1,1747.0,1754.0,1764.0,1864.0,1735.0,1754.0,1764.0,1749.0,97.20142364501953,-26.899555206298828,-61.88962173461914,Left
3629.02734375,19818,1,1711.0,1753.0,1737.0,1925.0,1863.0,1754.0,1763.0,1751.0,97.20142364501953,-26.899555206298828,-61.88962173461914,Left
3628.43798828125,19819,1,1689.0,1765.0,1694.0,1947.0,1723.0,1747.0,1756.0,1739.0,97.20142364501953,-26.899555206298828,-61.88962173461914,Left
3630.43798828125,19819,1,1695.0,1763.0,1767.0,1806.0,1701.0,1753.0,1765.0,1752.0,97.20142364501953,-26.899555206298828,-61.88962173461914,Left
3632.43798828125,19819,1,1723.0,1761.0,1780.0,1769.0,1803.0,1753.0,1763.0,1741.0,97.20142364501953,-26.899555206298828,-61.88962173461914,Left
3634.43798828125,19819,1,1773.0,1767.0,1801.0,1789.0,1715.0,1754.0,1753.0,1753.0,97.20142364501953,-26.899555206298828,-61.88962173461914,Left
