Timestamp_ms,Packet_Number,Trial_ID,Ch1,Ch2,Ch3,Ch4,Ch5,Ch6,Ch7,Ch8,Ch9,Ch10,Ch11,Label
2032.5450439453125,22696,1,1739.0,716.0,984.0,2020.0,8.0,2519.0,1767.0,1813.0,119.10049438476562,-56.057247161865234,-20.14436149597168,Left
2034.5450439453125,22696,1,1742.0,0.0,0.0,2328.0,0.0,2966.0,1771.0,1846.0,119.10049438476562,-56.057247161865234,-20.14436149597168,Left
2036.5450439453125,22696,1,1743.0,25.0,0.0,2417.0,0.0,940.0,1749.0,1925.0,119.10049438476562,-56.057247161865234,-20.14436149597168,Left
2038.5450439453125,22696,1,1733.0,1379.0,565.0,1869.0,0.0,988.0,1749.0,1773.0,119.10049438476562,-56.057247161865234,-20.14436149597168,Left
2040.5450439453125,22696,1,1735.0,2266.0,1448.0,1765.0,1075.0,1095.0,1766.0,1595.0,119.10049438476562,-56.057247161865234,-20.14436149597168,Left
2033.30712890625,22697,1,1734.0,3007.0,2543.0,1605.0,3812.0,920.0,1763.0,1701.0,119.10049438476562,-56.057247161865234,-20.14436149597168,Left
2035.30712890625,22697,1,1741.0,3817.0,3835.0,1261.0,3805.0,997.0,1766.0,1720.0,119.10049438476562,-56.057247161865234,-20.14436149597168,Left
2037.30712890625,22697,1,1755.0,3707.0,3839.0,1506.0,3816.0,1848.0,1752.0,1759.0,119.10049438476562,-56.057247161865234,-20.14436149597168,Left
2039.30712890625,22697,1,1751.0,2223.0,3107.0,1653.0,3783.0,2315.0,1759.0,1789.0,119.10049438476562,-56.057247161865234,-20.14436149597168,Left
2041.30712890625,22697,1,1751.0,1320.0,2063.0,1701.0,2780.0,2376.0,1749.0,1767.0,119.10049438476562,-56.057247161865234,-20.14436149597168,Left
2033.89404296875,22698,1,1740.0,533.0,1039.0,1939.0,50.0,2709.0,1762.0,1811.0,119.10049438476562,-56.057247161865234,-20.14436149597168,Left
2035.89404296875,22698,1,1741.0,0.0,0.0,2221.0,0.0,2776.0,1766.0,1743.0,119.10049438476562,-56.057247161865234,-20.14436149597168,Left
2037.89404296875,22698,1,1756.0,0.0,0.0,2005.0,0.0,1948.0,1747.0,1673.0,119.10049438476562,-56.057247161865234,-20.14436149597168,Left
2039.89404296875,22698,1,1753.0,1267.0,441.0,1747.0,0.0,1574.0,1765.0,1787.0,119.10049438476562,-56.057247161865234,-20.14436149597168,Left
2041.89404296875,22698,1,1766.0,1960.0,1389.0,1758.0,983.0,1467.0,1770.0,1758.0,119.10049438476562,-56.057247161865234,-20.14436149597168,Left
2034.180908203125,22699,1,1767.0,2959.0,2543.0,1547.0,3807.0,1016.0,1771.0,1639.0,119.10049438476562,-56.057247161865234,-20.14436149597168,Left
2036.180908203125,22699,1,1771.0,3821.0,3832.0,1259.0,3810.0,1237.0,1771.0,1803.0,119.10049438476562,-56.057247161865234,-20.14436149597168,Left
2038.180908203125,22699,1,1751.0,3599.0,3835.0,1279.0,3783.0,1957.0,1768.0,1843.0,119.10049438476562,-56.057247161865234,-20.14436149597168,Left
2040.180908203125,22699,1,1765.0,2099.0,3164.0,1507.0,3813.0,2423.0,1765.0,1812.0,119.10049438476562,-56.057247161865234,-20.14436149597168,Left
2042.180908203125,22699,1,1849.0,1426.0,2220.0,1737.0,2566.0,2195.0,1767.0,1700.0,119.10049438476562,-56.057247161865234,-20.14436149597168,Left
2034.4478759765625,22700,1,1751.0,551.0,856.0,2039.0,0.0,2567.0,1766.0,1785.0,119.10049438476562,-56.057247161865234,-20.14436149597168,Left
2036.4478759765625,22700,1,1735.0,0.0,63.0,2186.0,0.0,2155.0,1747.0,1657.0,119.10049438476562,-56.057247161865234,-20.14436149597168,Left
2038.4478759765625,22700,1,2109.0,328.0,0.0,2473.0,0.0,1733.0,1759.0,1847.0,119.10049438476562,-56.057247161865234,-20.14436149597168,Left
2040.4478759765625,22700,1,1720.0,1268.0,581.0,1960.0,0.0,1053.0,1758.0,1747.0,119.10049438476562,-56.057247161865234,-20.14436149597168,Left
2042.4478759765625,22700,1,1711.0,1991.0,1560.0,1383.0,1183.0,753.0,1765.0,1753.0,120.0752182006836,-55.93688201904297,-20.411556243896484,Left
2037.5809326171875,22701,1,1737.0,3209.0,2641.0,1503.0,3799.0,757.0,1771.0,1639.0,120.0752182006836,-55.93688201904297,-20.411556243896484,Left
2039.5809326171875,22701,1,1737.0,3819.0,3837.0,1103.0,3805.0,925.0,1770.0,1747.0,120.0752182006836,-55.93688201904297,-20.411556243896484,Left
2041.5809326171875,22701,1,1717.0,3563.0,3758.0,1340.0,3782.0,841.0,1752.0,1800.0,120.0752182006836,-55.93688201904297,-20.411556243896484,Left
2043.5809326171875,22701,1,1743.0,2300.0,2983.0,1501.0,3783.0,1773.0,1746.0,1765.0,120.0752182006836,-55.93688201904297,-20.411556243896484,Left
2045.5809326171875,22701,1,2067.0,1595.0,2251.0,1609.0,2347.0,1590.0,1764.0,1937.0,120.0752182006836,-55.93688201904297,-20.411556243896484,Left
2037.8150634765625,22702,1,1715.0,375.0,811.0,1944.0,0.0,2118.0,1765.0,1706.0,120.0752182006836,-55.93688201904297,-20.411556243896484,Left
2039.8150634765625,22702,1,1723.0,0.0,0.0,2279.0,0.0,2169.0,1756.0,1803.0,120.0752182006836,-55.93688201904297,-20.411556243896484,Left
2041.8150634765625,22702,1,1737.0,41.0,0.0,2283.0,0.0,1485.0,1763.0,1716.0,120.0752182006836,-55.93688201904297,-20.411556243896484,Left
2043.8150634765625,22702,1,1745.0,1323.0,461.0,2101.0,0.0,1291.0,1749.0,1657.0,120.0752182006836,-55.93688201904297,-20.411556243896484,Left
2045.8150634765625,22702,1,1747.0,2088.0,1368.0,1901.0,965.0,1493.0,1767.0,1719.0,120.0752182006836,-55.93688201904297,-20.411556243896484,Left
2038.007080078125,22703,1,1739.0,3199.0,2719.0,1490.0,3811.0,1117.0,1769.0,1695.0,120.0752182006836,-55.93688201904297,-20.411556243896484,Left
2040.007080078125,22703,1,1759.0,3805.0,3829.0,1341.0,3814.0,1310.0,1752.0,1728.0,120.0752182006836,-55.93688201904297,-20.411556243896484,Left
2042.007080078125,22703,1,1757.0,3397.0,3805.0,1519.0,3781.0,2043.0,1762.0,1797.0,120.0752182006836,-55.93688201904297,-20.411556243896484,Left
2044.007080078125,22703,1,1752.0,2065.0,3177.0,1733.0,3805.0,2292.0,1767.0,1817.0,120.0752182006836,-55.93688201904297,-20.411556243896484,Left
2046.007080078125,22703,1,1743.0,1203.0,1867.0,2130.0,2065.0,2296.0,1753.0,1739.0,120.0752182006836,-55.93688201904297,-20.411556243896484,Left
2043.0260009765625,22704,1,2009.0,595.0,990.0,1996.0,0.0,2125.0,1763.0,1739.0,120.0752182006836,-55.93688201904297,-20.411556243896484,Left
2045.0260009765625,22704,1,1734.0,20.0,0.0,2571.0,0.0,1606.0,1749.0,1725.0,120.0752182006836,-55.93688201904297,-20.411556243896484,Left
2047.0260009765625,22704,1,1839.0,284.0,0.0,2022.0,0.0,1149.0,1767.0,1781.0,120.0752182006836,-55.93688201904297,-20.411556243896484,Left
2049.02587890625,22704,1,1722.0,1461.0,620.0,1737.0,0.0,993.0,1765.0,1723.0,120.0752182006836,-55.93688201904297,-20.411556243896484,Left
2051.02587890625,22704,1,1737.0,2185.0,1576.0,1603.0,1021.0,1291.0,1761.0,1701.0,120.0752182006836,-55.93688201904297,-20.411556243896484,Left
2052.81689453125,22705,1,1740.0,3352.0,2310.0,1243.0,3785.0,907.0,1752.0,1576.0,120.0752182006836,-55.93688201904297,-20.411556243896484,Left
2054.81689453125,22705,1,2088.0,3850.0,4008.0,1431.0,4005.0,831.0,1773.0,1950.0,120.0752182006836,-55.93688201904297,-20.411556243896484,Left
2056.81689453125,22705,1,2136.0,3647.0,3805.0,1267.0,3816.0,1497.0,1757.0,1739.0,120.0752182006836,-55.93688201904297,-20.411556243896484,Left
2058.81689453125,22705,1,1660.0,1957.0,2871.0,1497.0,3789.0,1948.0,1769.0,1725.0,120.0752182006836,-55.93688201904297,-20.411556243896484,Left
2060.81689453125,22705,1,1671.0,1161.0,1907.0,1571.0,2456.0,2259.0,1773.0,1726.0,120.0752182006836,-55.93688201904297,-20.411556243896484,Left
2116.679931640625,22706,1,1701.0,147.0,168.0,1882.0,0.0,2510.0,1763.0,1917.0,120.0752182006836,-55.93688201904297,-20.411556243896484,Left
2118.679931640625,22706,1,1689.0,67.0,0.0,2005.0,0.0,1945.0,1751.0,1751.0,120.0752182006836,-55.93688201904297,-20.411556243896484,Left
2120.679931640625,22706,1,1701.0,123.0,0.0,2055.0,0.0,1547.0,1747.0,1577.0,120.0752182006836,-55.93688201904297,-20.411556243896484,Left
2122.679931640625,22706,1,1715.0,1365.0,682.0,1901.0,0.0,1337.0,1751.0,1707.0,120.0752182006836,-55.93688201904297,-20.411556243896484,Left
2124.679931640625,22706,1,1709.0,2089.0,1685.0,1811.0,1087.0,1463.0,1767.0,1755.0,120.0752182006836,-55.93688201904297,-20.411556243896484,Left
2117.731689453125,22707,1,1721.0,3341.0,3080.0,1605.0,3799.0,1194.0,1764.0,1692.0,120.0752182006836,-55.93688201904297,-20.411556243896484,Left
2119.731689453125,22707,1,1748.0,3829.0,3837.0,1321.0,3807.0,1582.0,1769.0,1735.0,121.06131744384766,-55.80122375488281,-20.638002395629883,Left
2121.731689453125,22707,1,1743.0,3356.0,3837.0,1645.0,3810.0,2211.0,1753.0,1756.0,121.06131744384766,-55.80122375488281,-20.638002395629883,Left
2123.731689453125,22707,1,1739.0,2035.0,3003.0,1779.0,3811.0,2607.0,1769.0,1907.0,121.06131744384766,-55.80122375488281,-20.638002395629883,Left
2125.731689453125,22707,1,1752.0,1291.0,2039.0,1901.0,2291.0,2643.0,1771.0,1799.0,121.06131744384766,-55.80122375488281,-20.638002395629883,Left
2118.32177734375,22708,1,1749.0,285.0,665.0,2185.0,0.0,3076.0,1748.0,1639.0,121.06131744384766,-55.80122375488281,-20.638002395629883,Left
2120.32177734375,22708,1,1751.0,0.0,0.0,2333.0,0.0,2807.0,1757.0,1721.0,121.06131744384766,-55.80122375488281,-20.638002395629883,Left
2122.32177734375,22708,1,1755.0,159.0,0.0,2165.0,0.0,2093.0,1768.0,1687.0,121.06131744384766,-55.80122375488281,-20.638002395629883,Left
2124.32177734375,22708,1,1753.0,1417.0,773.0,1863.0,0.0,1963.0,1763.0,1719.0,121.06131744384766,-55.80122375488281,-20.638002395629883,Left
2126.32177734375,22708,1,1762.0,2173.0,1783.0,1850.0,1255.0,1417.0,1749.0,1875.0,121.06131744384766,-55.80122375488281,-20.638002395629883,Left
2118.8759765625,22709,1,1962.0,3556.0,3183.0,1419.0,3799.0,615.0,1773.0,1647.0,121.06131744384766,-55.80122375488281,-20.638002395629883,Left
2120.8759765625,22709,1,1735.0,3900.0,4029.0,1512.0,3984.0,639.0,1753.0,1661.0,121.06131744384766,-55.80122375488281,-20.638002395629883,Left
2122.8759765625,22709,1,1704.0,3251.0,3827.0,1419.0,3864.0,2389.0,1749.0,1911.0,121.06131744384766,-55.80122375488281,-20.638002395629883,Left
2124.8759765625,22709,1,1720.0,1983.0,3020.0,1663.0,3811.0,1919.0,1770.0,1804.0,121.06131744384766,-55.80122375488281,-20.638002395629883,Left
2126.8759765625,22709,1,1743.0,1363.0,2071.0,1671.0,2311.0,1827.0,1771.0,1797.0,121.06131744384766,-55.80122375488281,-20.638002395629883,Left
2119.330810546875,22710,1,1740.0,230.0,621.0,1959.0,0.0,2299.0,1758.0,1832.0,121.06131744384766,-55.80122375488281,-20.638002395629883,Left
2121.330810546875,22710,1,1716.0,0.0,0.0,2105.0,0.0,2173.0,1752.0,1707.0,121.06131744384766,-55.80122375488281,-20.638002395629883,Left
2123.330810546875,22710,1,1736.0,231.0,0.0,1901.0,0.0,1764.0,1749.0,1675.0,121.06131744384766,-55.80122375488281,-20.638002395629883,Left
2125.330810546875,22710,1,1855.0,1781.0,796.0,1751.0,0.0,1945.0,1745.0,1751.0,121.06131744384766,-55.80122375488281,-20.638002395629883,Left
2127.330810546875,22710,1,1725.0,2198.0,1571.0,1653.0,1279.0,1256.0,1755.0,1789.0,121.06131744384766,-55.80122375488281,-20.638002395629883,Left
2119.739013671875,22711,1,1733.0,3487.0,2988.0,1367.0,3799.0,612.0,1763.0,1496.0,121.06131744384766,-55.80122375488281,-20.638002395629883,Left
2121.739013671875,22711,1,1722.0,3817.0,3827.0,1224.0,3805.0,1251.0,1769.0,1779.0,121.06131744384766,-55.80122375488281,-20.638002395629883,Left
2123.739013671875,22711,1,1739.0,3308.0,3823.0,1451.0,3811.0,2041.0,1764.0,1866.0,121.06131744384766,-55.80122375488281,-20.638002395629883,Left
2125.739013671875,22711,1,1733.0,2043.0,2847.0,1641.0,3811.0,2503.0,1763.0,1884.0,121.06131744384766,-55.80122375488281,-20.638002395629883,Left
2127.739013671875,22711,1,1751.0,1351.0,1977.0,1773.0,2245.0,2568.0,1751.0,1830.0,121.06131744384766,-55.80122375488281,-20.638002395629883,Left
2120.80126953125,22712,1,1753.0,197.0,627.0,2157.0,0.0,2943.0,1757.0,1707.0,121.06131744384766,-55.80122375488281,-20.638002395629883,Left
2122.80126953125,22712,1,1752.0,0.0,0.0,2425.0,0.0,2650.0,1768.0,1663.0,121.06131744384766,-55.80122375488281,-20.638002395629883,Left
2124.80126953125,22712,1,1755.0,327.0,0.0,2099.0,0.0,2103.0,1769.0,1715.0,121.06131744384766,-55.80122375488281,-20.638002395629883,Left
2126.80126953125,22712,1,1874.0,1589.0,825.0,1784.0,0.0,2107.0,1752.0,1783.0,121.06131744384766,-55.80122375488281,-20.638002395629883,Left
2128.80126953125,22712,1,1739.0,2277.0,1613.0,1669.0,1101.0,1509.0,1748.0,1739.0,121.06131744384766,-55.80122375488281,-20.638002395629883,Left
2132.091064453125,22713,1,1749.0,3625.0,3021.0,1384.0,3880.0,908.0,1767.0,1803.0,121.06131744384766,-55.80122375488281,-20.638002395629883,Left
2134.091064453125,22713,1,1810.0,3875.0,3725.0,1227.0,3817.0,975.0,1753.0,1533.0,121.06131744384766,-55.80122375488281,-20.638002395629883,Left
2136.091064453125,22713,1,1715.0,3109.0,3839.0,1548.0,3803.0,1764.0,1769.0,1721.0,121.06131744384766,-55.80122375488281,-20.638002395629883,Left
2138.091064453125,22713,1,1723.0,1836.0,2695.0,1765.0,3817.0,2341.0,1769.0,1755.0,121.06131744384766,-55.80122375488281,-20.638002395629883,Left
2140.091064453125,22713,1,1737.0,1237.0,1799.0,1915.0,2300.0,2360.0,1771.0,1797.0,121.78199768066406,-55.68592834472656,-20.80731201171875,Left
2140.36572265625,22714,1,1736.0,13.0,233.0,2480.0,0.0,2649.0,1753.0,1831.0,121.78199768066406,-55.68592834472656,-20.80731201171875,Left
2142.36572265625,22714,1,1707.0,0.0,0.0,2069.0,0.0,2077.0,1762.0,1835.0,121.78199768066406,-55.68592834472656,-20.80731201171875,Left
2144.36572265625,22714,1,1727.0,288.0,0.0,2011.0,0.0,1511.0,1755.0,1769.0,121.78199768066406,-55.68592834472656,-20.80731201171875,Left
2146.36572265625,22714,1,1735.0,1447.0,655.0,1864.0,0.0,1173.0,1769.0,1549.0,121.78199768066406,-55.68592834472656,-20.80731201171875,Left
2148.36572265625,22714,1,1725.0,2184.0,1547.0,1757.0,1196.0,1363.0,1767.0,1735.0,121.78199768066406,-55.68592834472656,-20.80731201171875,Left
2151.130859375,22715,1,1751.0,3756.0,2843.0,1571.0,3807.0,921.0,1736.0,1689.0,121.78199768066406,-55.68592834472656,-20.80731201171875,Left
2153.130859375,22715,1,2134.0,3799.0,3835.0,1192.0,3782.0,1053.0,1753.0,1724.0,121.78199768066406,-55.68592834472656,-20.80731201171875,Left
2155.130859375,22715,1,1705.0,3101.0,3833.0,1327.0,3817.0,1831.0,1769.0,1803.0,121.78199768066406,-55.68592834472656,-20.80731201171875,Left
2157.130859375,22715,1,1704.0,1833.0,2809.0,1641.0,3812.0,2213.0,1767.0,1765.0,121.78199768066406,-55.68592834472656,-20.80731201171875,Left
2159.130859375,22715,1,1715.0,1275.0,1865.0,1845.0,2131.0,2195.0,1767.0,1849.0,121.78199768066406,-55.68592834472656,-20.80731201171875,Left
2178.907958984375,22716,1,1726.0,10.0,152.0,2383.0,0.0,2539.0,1745.0,1852.0,121.78199768066406,-55.68592834472656,-20.80731201171875,Left
2180.907958984375,22716,1,2009.0,0.0,0.0,2207.0,0.0,2035.0,1765.0,1597.0,121.78199768066406,-55.68592834472656,-20.80731201171875,Left
2182.907958984375,22716,1,1707.0,429.0,0.0,2174.0,0.0,1505.0,1765.0,1719.0,121.78199768066406,-55.68592834472656,-20.80731201171875,Left
2184.907958984375,22716,1,1719.0,1707.0,839.0,1941.0,0.0,1215.0,1767.0,1561.0,121.78199768066406,-55.68592834472656,-20.80731201171875,Left
2186.907958984375,22716,1,1725.0,2341.0,1705.0,1915.0,1179.0,1257.0,1764.0,1791.0,121.78199768066406,-55.68592834472656,-20.80731201171875,Left
2179.86572265625,22717,1,1737.0,3832.0,3397.0,1627.0,3812.0,727.0,1768.0,1843.0,121.78199768066406,-55.68592834472656,-20.80731201171875,Left
2181.86572265625,22717,1,1755.0,3815.0,3823.0,1498.0,3781.0,1317.0,1774.0,1812.0,121.78199768066406,-55.68592834472656,-20.80731201171875,Left
2183.86572265625,22717,1,1755.0,3107.0,3845.0,1571.0,3787.0,2035.0,1769.0,1599.0,121.78199768066406,-55.68592834472656,-20.80731201171875,Left
2185.86572265625,22717,1,1742.0,1961.0,2877.0,1668.0,3806.0,2424.0,1751.0,1755.0,121.78199768066406,-55.68592834472656,-20.80731201171875,Left
2187.86572265625,22717,1,1753.0,1273.0,1947.0,1829.0,2301.0,2376.0,1748.0,1903.0,121.78199768066406,-55.68592834472656,-20.80731201171875,Left
2181.10302734375,22718,1,1745.0,0.0,346.0,2149.0,0.0,2781.0,1747.0,1903.0,121.78199768066406,-55.68592834472656,-20.80731201171875,Left
2183.10302734375,22718,1,1755.0,0.0,0.0,2232.0,0.0,2223.0,1765.0,1701.0,121.78199768066406,-55.68592834472656,-20.80731201171875,Left
2185.10302734375,22718,1,1992.0,425.0,0.0,2116.0,0.0,1689.0,1747.0,1678.0,121.78199768066406,-55.68592834472656,-20.80731201171875,Left
2187.10302734375,22718,1,2013.0,1789.0,733.0,2019.0,333.0,1304.0,1723.0,1684.0,121.78199768066406,-55.68592834472656,-20.80731201171875,Left
2189.10302734375,22718,1,2007.0,2292.0,1187.0,1885.0,1096.0,670.0,1751.0,1699.0,121.78199768066406,-55.68592834472656,-20.80731201171875,Left
2194.295166015625,22719,1,1727.0,3801.0,3291.0,1415.0,3817.0,105.0,1769.0,1674.0,121.78199768066406,-55.68592834472656,-20.80731201171875,Left
2196.295166015625,22719,1,1837.0,3821.0,3827.0,1129.0,3821.0,1239.0,1765.0,1828.0,121.78199768066406,-55.68592834472656,-20.80731201171875,Left
2198.295166015625,22719,1,1689.0,2859.0,3813.0,1349.0,3803.0,1350.0,1767.0,1803.0,121.78199768066406,-55.68592834472656,-20.80731201171875,Left
2200.295166015625,22719,1,1704.0,1763.0,2697.0,1597.0,3544.0,1787.0,1769.0,1687.0,121.78199768066406,-55.68592834472656,-20.80731201171875,Left
2202.295166015625,22719,1,1711.0,1165.0,1883.0,1685.0,2019.0,2022.0,1764.0,1769.0,121.78199768066406,-55.68592834472656,-20.80731201171875,Left
2200.697021484375,22720,1,1722.0,0.0,0.0,2363.0,0.0,2381.0,1767.0,1819.0,121.78199768066406,-55.68592834472656,-20.80731201171875,Left
2202.697021484375,22720,1,1673.0,5.0,0.0,2199.0,0.0,1491.0,1767.0,1693.0,122.41864013671875,-55.63018035888672,-20.743213653564453,Left
2204.697021484375,22720,1,1717.0,247.0,0.0,2121.0,0.0,1361.0,1765.0,1703.0,122.41864013671875,-55.63018035888672,-20.743213653564453,Left
2206.697021484375,22720,1,1727.0,1567.0,957.0,1990.0,0.0,1545.0,1763.0,1733.0,122.41864013671875,-55.63018035888672,-20.743213653564453,Left
2208.697021484375,22720,1,1737.0,2275.0,1919.0,1851.0,1285.0,1788.0,1768.0,1685.0,122.41864013671875,-55.63018035888672,-20.743213653564453,Left
2210.362060546875,22721,1,1743.0,3829.0,3559.0,1630.0,3813.0,1181.0,1735.0,1756.0,122.41864013671875,-55.63018035888672,-20.743213653564453,Left
2212.362060546875,22721,1,1746.0,3800.0,3832.0,1207.0,3811.0,1799.0,1763.0,1805.0,122.41864013671875,-55.63018035888672,-20.743213653564453,Left
2214.362060546875,22721,1,1710.0,2988.0,3833.0,1361.0,3809.0,2283.0,1764.0,1715.0,122.41864013671875,-55.63018035888672,-20.743213653564453,Left
2216.362060546875,22721,1,1717.0,1830.0,2762.0,1497.0,3488.0,2573.0,1768.0,1715.0,122.41864013671875,-55.63018035888672,-20.743213653564453,Left
2218.362060546875,22721,1,1724.0,1097.0,1780.0,1687.0,2139.0,2539.0,1767.0,1724.0,122.41864013671875,-55.63018035888672,-20.743213653564453,Left
2220.763916015625,22722,1,1739.0,0.0,0.0,2287.0,0.0,2808.0,1741.0,1801.0,122.41864013671875,-55.63018035888672,-20.743213653564453,Left
2222.763916015625,22722,1,1983.0,0.0,0.0,2117.0,0.0,2085.0,1756.0,1733.0,122.41864013671875,-55.63018035888672,-20.743213653564453,Left
2224.763916015625,22722,1,1711.0,648.0,0.0,2073.0,0.0,1766.0,1768.0,1725.0,122.41864013671875,-55.63018035888672,-20.743213653564453,Left
2226.763916015625,22722,1,1724.0,1785.0,905.0,1875.0,221.0,1727.0,1751.0,1893.0,122.41864013671875,-55.63018035888672,-20.743213653564453,Left
2228.763916015625,22722,1,1747.0,2315.0,1683.0,1748.0,1492.0,1831.0,1770.0,1677.0,122.41864013671875,-55.63018035888672,-20.743213653564453,Left
2231.56591796875,22723,1,1753.0,3822.0,3229.0,1611.0,3800.0,1096.0,1749.0,1696.0,122.41864013671875,-55.63018035888672,-20.743213653564453,Left
2233.56591796875,22723,1,1783.0,3820.0,3836.0,1321.0,3811.0,1431.0,1763.0,1767.0,122.41864013671875,-55.63018035888672,-20.743213653564453,Left
2235.56591796875,22723,1,1706.0,2854.0,3846.0,1444.0,3785.0,2111.0,1767.0,1735.0,122.41864013671875,-55.63018035888672,-20.743213653564453,Left
2237.56591796875,22723,1,1712.0,1803.0,2659.0,1565.0,3593.0,2327.0,1768.0,1869.0,122.41864013671875,-55.63018035888672,-20.743213653564453,Left
2239.56591796875,22723,1,1721.0,1277.0,1717.0,1662.0,2091.0,2365.0,1769.0,1629.0,122.41864013671875,-55.63018035888672,-20.743213653564453,Left
2242.5029296875,22724,1,1735.0,0.0,7.0,2169.0,0.0,2941.0,1765.0,1663.0,122.41864013671875,-55.63018035888672,-20.743213653564453,Left
2244.5029296875,22724,1,1915.0,0.0,0.0,2216.0,0.0,2180.0,1740.0,1752.0,122.41864013671875,-55.63018035888672,-20.743213653564453,Left
2246.5029296875,22724,1,1723.0,637.0,0.0,2054.0,0.0,1357.0,1763.0,1801.0,122.41864013671875,-55.63018035888672,-20.743213653564453,Left
2248.5029296875,22724,1,1723.0,1659.0,838.0,1998.0,335.0,1289.0,1764.0,1789.0,122.41864013671875,-55.63018035888672,-20.743213653564453,Left
2250.5029296875,22724,1,1741.0,2223.0,1807.0,1911.0,1563.0,1547.0,1769.0,1720.0,122.41864013671875,-55.63018035888672,-20.743213653564453,Left
2250.2529296875,22725,1,1738.0,3829.0,3539.0,1829.0,3816.0,911.0,1771.0,1696.0,122.41864013671875,-55.63018035888672,-20.743213653564453,Left
2252.2529296875,22725,1,1766.0,3951.0,3813.0,1310.0,3799.0,2099.0,1753.0,1750.0,122.41864013671875,-55.63018035888672,-20.743213653564453,Left
2254.2529296875,22725,1,1733.0,3030.0,3836.0,1597.0,3805.0,1584.0,1749.0,1789.0,122.41864013671875,-55.63018035888672,-20.743213653564453,Left
2256.2529296875,22725,1,1699.0,1783.0,2675.0,1824.0,3308.0,1977.0,1767.0,1769.0,122.41864013671875,-55.63018035888672,-20.743213653564453,Left
2258.2529296875,22725,1,1717.0,1268.0,1864.0,1979.0,1960.0,2009.0,1767.0,1755.0,122.41864013671875,-55.63018035888672,-20.743213653564453,Left
2262.285888671875,22726,1,1715.0,0.0,0.0,2541.0,0.0,2199.0,1725.0,1774.0,122.41864013671875,-55.63018035888672,-20.743213653564453,Left
2264.285888671875,22726,1,1695.0,0.0,0.0,2221.0,0.0,1351.0,1764.0,1723.0,122.41864013671875,-55.63018035888672,-20.743213653564453,Left
2266.285888671875,22726,1,1721.0,618.0,0.0,2167.0,0.0,1131.0,1751.0,1711.0,122.41864013671875,-55.63018035888672,-20.743213653564453,Left
2268.285888671875,22726,1,1716.0,1711.0,1011.0,1884.0,120.0,1237.0,1769.0,1719.0,122.41864013671875,-55.63018035888672,-20.743213653564453,Left
2270.285888671875,22726,1,1738.0,2295.0,1774.0,1735.0,1317.0,1562.0,1751.0,1765.0,122.41864013671875,-55.63018035888672,-20.743213653564453,Left
2272.18115234375,22727,1,1748.0,3801.0,3248.0,1418.0,3784.0,1069.0,1753.0,1719.0,123.24919128417969,-55.60917282104492,-20.28825569152832,Left
2274.18115234375,22727,1,1767.0,3836.0,3831.0,1271.0,3965.0,2065.0,1751.0,1782.0,123.24919128417969,-55.60917282104492,-20.28825569152832,Left
2276.18115234375,22727,1,1963.0,2701.0,3827.0,1620.0,3814.0,1716.0,1769.0,1755.0,123.24919128417969,-55.60917282104492,-20.28825569152832,Left
2278.18115234375,22727,1,1657.0,1563.0,2413.0,1889.0,3336.0,2063.0,1763.0,1757.0,123.24919128417969,-55.60917282104492,-20.28825569152832,Left
2280.18115234375,22727,1,1691.0,1048.0,1675.0,1910.0,1996.0,2171.0,1769.0,1854.0,123.24919128417969,-55.60917282104492,-20.28825569152832,Left
2280.2041015625,22728,1,1690.0,0.0,0.0,2182.0,0.0,2711.0,1769.0,1767.0,123.24919128417969,-55.60917282104492,-20.28825569152832,Left
2282.2041015625,22728,1,1975.0,11.0,0.0,2255.0,0.0,1747.0,1733.0,1694.0,123.24919128417969,-55.60917282104492,-20.28825569152832,Left
2284.2041015625,22728,1,1707.0,855.0,0.0,2147.0,0.0,1343.0,1759.0,1723.0,123.24919128417969,-55.60917282104492,-20.28825569152832,Left
2286.2041015625,22728,1,1704.0,1773.0,925.0,1643.0,359.0,1439.0,1765.0,1723.0,123.24919128417969,-55.60917282104492,-20.28825569152832,Left
2288.2041015625,22728,1,1727.0,2283.0,1746.0,1661.0,1590.0,1837.0,1770.0,1755.0,123.24919128417969,-55.60917282104492,-20.28825569152832,Left
2290.738037109375,22729,1,1747.0,3831.0,3352.0,1227.0,3815.0,1723.0,1737.0,1679.0,123.24919128417969,-55.60917282104492,-20.28825569152832,Left
2292.738037109375,22729,1,1873.0,3829.0,3836.0,1147.0,3813.0,1847.0,1757.0,1775.0,123.24919128417969,-55.60917282104492,-20.28825569152832,Left
2294.738037109375,22729,1,1711.0,2815.0,3811.0,1375.0,3803.0,2316.0,1751.0,1778.0,123.24919128417969,-55.60917282104492,-20.28825569152832,Left
2296.738037109375,22729,1,1709.0,1723.0,2611.0,1498.0,3542.0,2525.0,1769.0,1771.0,123.24919128417969,-55.60917282104492,-20.28825569152832,Left
2298.738037109375,22729,1,1723.0,1095.0,1820.0,1738.0,2089.0,2361.0,1769.0,1783.0,123.24919128417969,-55.60917282104492,-20.28825569152832,Left
2301.60595703125,22730,1,1739.0,0.0,0.0,2393.0,0.0,2456.0,1709.0,1767.0,123.24919128417969,-55.60917282104492,-20.28825569152832,Left
2303.60595703125,22730,1,1703.0,8.0,0.0,2104.0,0.0,1748.0,1768.0,1718.0,123.24919128417969,-55.60917282104492,-20.28825569152832,Left
2305.60595703125,22730,1,1723.0,667.0,0.0,2045.0,0.0,1526.0,1768.0,1733.0,123.24919128417969,-55.60917282104492,-20.28825569152832,Left
2307.60595703125,22730,1,1733.0,1909.0,919.0,1797.0,279.0,1499.0,1769.0,1669.0,123.24919128417969,-55.60917282104492,-20.28825569152832,Left
2309.60595703125,22730,1,1737.0,2373.0,1803.0,1799.0,1352.0,1695.0,1765.0,1741.0,123.24919128417969,-55.60917282104492,-20.28825569152832,Left
2311.404052734375,22731,1,1737.0,3821.0,3823.0,1300.0,3824.0,1753.0,1767.0,1703.0,123.24919128417969,-55.60917282104492,-20.28825569152832,Left
2313.404052734375,22731,1,1708.0,3959.0,3836.0,1181.0,3807.0,1407.0,1771.0,1805.0,123.24919128417969,-55.60917282104492,-20.28825569152832,Left
2315.404052734375,22731,1,1727.0,2684.0,3837.0,1433.0,3785.0,1884.0,1751.0,1810.0,123.24919128417969,-55.60917282104492,-20.28825569152832,Left
2317.404052734375,22731,1,1725.0,1577.0,2606.0,1682.0,3197.0,2229.0,1768.0,1781.0,123.24919128417969,-55.60917282104492,-20.28825569152832,Left
2319.404052734375,22731,1,1725.0,1021.0,1722.0,1869.0,1877.0,2197.0,1765.0,1757.0,123.24919128417969,-55.60917282104492,-20.28825569152832,Left
2325.094970703125,22732,1,1738.0,0.0,0.0,2493.0,0.0,2455.0,1768.0,1772.0,123.24919128417969,-55.60917282104492,-20.28825569152832,Left
2327.094970703125,22732,1,1745.0,0.0,0.0,2557.0,0.0,1481.0,1763.0,1735.0,123.24919128417969,-55.60917282104492,-20.28825569152832,Left
2329.094970703125,22732,1,1715.0,631.0,0.0,2135.0,0.0,1353.0,1747.0,1689.0,123.24919128417969,-55.60917282104492,-20.28825569152832,Left
2331.094970703125,22732,1,1727.0,1784.0,1115.0,1914.0,471.0,1271.0,1768.0,1715.0,123.24919128417969,-55.60917282104492,-20.28825569152832,Left
2333.094970703125,22732,1,1747.0,2227.0,1911.0,1711.0,1467.0,1306.0,1758.0,1785.0,123.24919128417969,-55.60917282104492,-20.28825569152832,Left
2333.297119140625,22733,1,1751.0,3809.0,3944.0,1379.0,3782.0,1112.0,1739.0,1727.0,123.24919128417969,-55.60917282104492,-20.28825569152832,Left
2335.297119140625,22733,1,1927.0,3827.0,3833.0,1172.0,3955.0,1742.0,1735.0,1771.0,123.79287719726562,-55.7239875793457,-20.080284118652344,Left
2337.297119140625,22733,1,1813.0,2551.0,3812.0,1422.0,3805.0,1605.0,1763.0,1806.0,123.79287719726562,-55.7239875793457,-20.080284118652344,Left
2339.297119140625,22733,1,1700.0,1579.0,2469.0,1709.0,3079.0,1995.0,1763.0,1747.0,123.79287719726562,-55.7239875793457,-20.080284118652344,Left
2341.297119140625,22733,1,1699.0,1191.0,1647.0,1781.0,1849.0,2063.0,1765.0,1709.0,123.79287719726562,-55.7239875793457,-20.080284118652344,Left
2342.852783203125,22734,1,1717.0,37.0,0.0,2335.0,0.0,2518.0,1767.0,1771.0,123.79287719726562,-55.7239875793457,-20.080284118652344,Left
2344.852783203125,22734,1,1725.0,103.0,0.0,2279.0,0.0,1692.0,1761.0,1738.0,123.79287719726562,-55.7239875793457,-20.080284118652344,Left
2346.852783203125,22734,1,1703.0,611.0,0.0,1864.0,0.0,1048.0,1767.0,1723.0,123.79287719726562,-55.7239875793457,-20.080284118652344,Left
2348.852783203125,22734,1,1720.0,1932.0,1083.0,1903.0,45.0,1071.0,1767.0,1748.0,123.79287719726562,-55.7239875793457,-20.080284118652344,Left
2350.852783203125,22734,1,1735.0,2233.0,1883.0,1689.0,1183.0,1272.0,1759.0,1677.0,123.79287719726562,-55.7239875793457,-20.080284118652344,Left
2350.175048828125,22735,1,1748.0,3816.0,3923.0,1335.0,3807.0,590.0,1767.0,1757.0,123.79287719726562,-55.7239875793457,-20.080284118652344,Left
2352.175048828125,22735,1,1725.0,3829.0,3903.0,1653.0,3965.0,1511.0,1781.0,1779.0,123.79287719726562,-55.7239875793457,-20.080284118652344,Left
2354.175048828125,22735,1,1813.0,2588.0,3831.0,1541.0,3815.0,1671.0,1767.0,1827.0,123.79287719726562,-55.7239875793457,-20.080284118652344,Left
2356.175048828125,22735,1,1717.0,1635.0,2491.0,1855.0,3193.0,2231.0,1771.0,1810.0,123.79287719726562,-55.7239875793457,-20.080284118652344,Left
2358.175048828125,22735,1,1723.0,1229.0,1716.0,1917.0,2135.0,2549.0,1771.0,1747.0,123.79287719726562,-55.7239875793457,-20.080284118652344,Left
2363.35888671875,22736,1,1727.0,0.0,0.0,2523.0,0.0,3403.0,1748.0,1816.0,123.79287719726562,-55.7239875793457,-20.080284118652344,Left
2365.35888671875,22736,1,1949.0,87.0,0.0,2201.0,0.0,2843.0,1768.0,1746.0,123.79287719726562,-55.7239875793457,-20.080284118652344,Left
2367.35888671875,22736,1,1707.0,715.0,0.0,1989.0,0.0,2475.0,1753.0,1739.0,123.79287719726562,-55.7239875793457,-20.080284118652344,Left
2369.35888671875,22736,1,1735.0,1821.0,1115.0,1864.0,461.0,2101.0,1763.0,1757.0,123.79287719726562,-55.7239875793457,-20.080284118652344,Left
2371.35888671875,22736,1,1739.0,2653.0,1891.0,1865.0,1609.0,1693.0,1767.0,1723.0,123.79287719726562,-55.7239875793457,-20.080284118652344,Left
2377.26806640625,22737,1,1747.0,3827.0,3835.0,824.0,3814.0,171.0,1762.0,1688.0,123.79287719726562,-55.7239875793457,-20.080284118652344,Left
2379.26806640625,22737,1,1754.0,3898.0,3827.0,814.0,3813.0,0.0,1763.0,1815.0,123.79287719726562,-55.7239875793457,-20.080284118652344,Left
2381.26806640625,22737,1,1737.0,2515.0,3839.0,1204.0,3787.0,99.0,1768.0,1773.0,123.79287719726562,-55.7239875793457,-20.080284118652344,Left
2383.26806640625,22737,1,1726.0,1365.0,2293.0,1543.0,3820.0,1017.0,1771.0,1749.0,123.79287719726562,-55.7239875793457,-20.080284118652344,Left
2385.26806640625,22737,1,1737.0,1222.0,1482.0,1750.0,2343.0,1610.0,1758.0,1725.0,123.79287719726562,-55.7239875793457,-20.080284118652344,Left
2382.06494140625,22738,1,1743.0,0.0,0.0,2661.0,0.0,3247.0,1743.0,1763.0,123.79287719726562,-55.7239875793457,-20.080284118652344,Left
2384.06494140625,22738,1,1722.0,234.0,0.0,2323.0,0.0,3727.0,1765.0,1709.0,123.79287719726562,-55.7239875793457,-20.080284118652344,Left
2386.06494140625,22738,1,1740.0,1433.0,739.0,1861.0,0.0,2924.0,1765.0,1735.0,123.79287719726562,-55.7239875793457,-20.080284118652344,Left
2388.06494140625,22738,1,1819.0,2501.0,1087.0,1832.0,167.0,2734.0,1783.0,1695.0,123.79287719726562,-55.7239875793457,-20.080284118652344,Left
2390.06494140625,22738,1,1715.0,3033.0,1769.0,1880.0,1655.0,1721.0,1751.0,1710.0,123.79287719726562,-55.7239875793457,-20.080284118652344,Left
2390.81591796875,22739,1,1721.0,3800.0,3926.0,1485.0,3812.0,0.0,1757.0,1656.0,123.79287719726562,-55.7239875793457,-20.080284118652344,Left
2392.81591796875,22739,1,1754.0,3828.0,3813.0,1257.0,3987.0,205.0,1753.0,1757.0,123.79287719726562,-55.7239875793457,-20.080284118652344,Left
2394.81591796875,22739,1,1846.0,3821.0,3830.0,1597.0,3813.0,215.0,1749.0,1788.0,123.79287719726562,-55.7239875793457,-20.080284118652344,Left
2396.81591796875,22739,1,1700.0,1715.0,2521.0,1849.0,3309.0,1052.0,1755.0,1885.0,125.66641235351562,-55.593135833740234,-22.070711135864258,Left
2398.81591796875,22739,1,1695.0,744.0,1557.0,1770.0,2087.0,1654.0,1763.0,1749.0,125.66641235351562,-55.593135833740234,-22.070711135864258,Left
2402.97412109375,22740,1,1717.0,0.0,0.0,2405.0,0.0,3113.0,1748.0,1597.0,125.66641235351562,-55.593135833740234,-22.070711135864258,Left
2404.97412109375,22740,1,1659.0,63.0,0.0,2131.0,0.0,3174.0,1750.0,1663.0,125.66641235351562,-55.593135833740234,-22.070711135864258,Left
2406.97412109375,22740,1,1717.0,0.0,0.0,1958.0,0.0,2851.0,1757.0,1725.0,125.66641235351562,-55.593135833740234,-22.070711135864258,Left
2408.97412109375,22740,1,1724.0,509.0,1017.0,1739.0,623.0,2365.0,1749.0,1740.0,125.66641235351562,-55.593135833740234,-22.070711135864258,Left
2410.97412109375,22740,1,1737.0,1323.0,1997.0,1643.0,1779.0,1952.0,1769.0,1827.0,125.66641235351562,-55.593135833740234,-22.070711135864258,Left
2411.130859375,22741,1,1746.0,3821.0,3835.0,1264.0,3805.0,314.0,1747.0,1587.0,125.66641235351562,-55.593135833740234,-22.070711135864258,Left
2413.130859375,22741,1,1741.0,3823.0,3832.0,1189.0,3803.0,199.0,1767.0,1737.0,125.66641235351562,-55.593135833740234,-22.070711135864258,Left
2415.130859375,22741,1,1852.0,3821.0,3835.0,1270.0,3883.0,937.0,1765.0,1769.0,125.66641235351562,-55.593135833740234,-22.070711135864258,Left
2417.130859375,22741,1,1724.0,3327.0,2411.0,1597.0,2811.0,1319.0,1769.0,1765.0,125.66641235351562,-55.593135833740234,-22.070711135864258,Left
2419.130859375,22741,1,1736.0,3453.0,1757.0,1763.0,1640.0,2013.0,1767.0,937.0,125.66641235351562,-55.593135833740234,-22.070711135864258,Left
2421.048828125,22742,1,1736.0,1391.0,0.0,2286.0,0.0,3859.0,1755.0,0.0,125.66641235351562,-55.593135833740234,-22.070711135864258,Left
2423.048828125,22742,1,1755.0,2271.0,0.0,2491.0,0.0,3339.0,1767.0,0.0,125.66641235351562,-55.593135833740234,-22.070711135864258,Left
2425.048828125,22742,1,1715.0,2707.0,155.0,1881.0,0.0,3260.0,1763.0,0.0,125.66641235351562,-55.593135833740234,-22.070711135864258,Left
2427.048828125,22742,1,1727.0,2645.0,1135.0,1707.0,413.0,2523.0,1748.0,0.0,125.66641235351562,-55.593135833740234,-22.070711135864258,Left
2429.048828125,22742,1,1746.0,2232.0,1911.0,1679.0,1801.0,2057.0,1761.0,0.0,125.66641235351562,-55.593135833740234,-22.070711135864258,Left
2430.77197265625,22743,1,1754.0,3655.0,3805.0,1294.0,3775.0,16.0,1769.0,0.0,125.66641235351562,-55.593135833740234,-22.070711135864258,Left
2432.77197265625,22743,1,1750.0,2215.0,3933.0,1337.0,3811.0,0.0,1767.0,0.0,125.66641235351562,-55.593135833740234,-22.070711135864258,Left
2434.77197265625,22743,1,1717.0,760.0,3647.0,1404.0,3816.0,517.0,1763.0,0.0,125.66641235351562,-55.593135833740234,-22.070711135864258,Left
2436.77197265625,22743,1,1720.0,0.0,2424.0,1707.0,2671.0,1337.0,1765.0,0.0,125.66641235351562,-55.593135833740234,-22.070711135864258,Left
2438.77197265625,22743,1,1735.0,0.0,1652.0,1707.0,1336.0,1893.0,1757.0,0.0,125.66641235351562,-55.593135833740234,-22.070711135864258,Left
2440.699951171875,22744,1,1739.0,0.0,0.0,2397.0,0.0,3017.0,1720.0,0.0,125.66641235351562,-55.593135833740234,-22.070711135864258,Left
2442.699951171875,22744,1,1723.0,0.0,0.0,1945.0,0.0,2636.0,1747.0,0.0,125.66641235351562,-55.593135833740234,-22.070711135864258,Left
2444.699951171875,22744,1,1656.0,0.0,0.0,0.0,0.0,923.0,1750.0,0.0,125.66641235351562,-55.593135833740234,-22.070711135864258,Left
2446.699951171875,22744,1,1672.0,52.0,0.0,0.0,0.0,0.0,1755.0,0.0,125.66641235351562,-55.593135833740234,-22.070711135864258,Left
2448.699951171875,22744,1,1691.0,354.0,0.0,0.0,0.0,0.0,1751.0,118.0,125.66641235351562,-55.593135833740234,-22.070711135864258,Left
2451.739013671875,22745,1,1705.0,616.0,693.0,0.0,3801.0,0.0,1720.0,377.0,125.66641235351562,-55.593135833740234,-22.070711135864258,Left
2453.739013671875,22745,1,1705.0,843.0,2291.0,0.0,3784.0,0.0,1761.0,595.0,125.66641235351562,-55.593135833740234,-22.070711135864258,Left
2455.739013671875,22745,1,1707.0,957.0,1880.0,0.0,2175.0,0.0,1755.0,787.0,125.66641235351562,-55.593135833740234,-22.070711135864258,Left
2457.739013671875,22745,1,1721.0,1101.0,1511.0,0.0,761.0,0.0,1763.0,935.0,125.66641235351562,-55.593135833740234,-22.070711135864258,Left
2459.739013671875,22745,1,1719.0,1199.0,1363.0,0.0,0.0,292.0,1765.0,1063.0,125.66641235351562,-55.593135833740234,-22.070711135864258,Left
2527.69580078125,22746,1,1735.0,1287.0,0.0,0.0,0.0,2149.0,1766.0,1181.0,125.66641235351562,-55.593135833740234,-22.070711135864258,Left
2529.69580078125,22746,1,1765.0,1379.0,0.0,0.0,0.0,2677.0,1763.0,1251.0,132.2366485595703,-54.6751823425293,-28.884288787841797,Left
2531.69580078125,22746,1,1738.0,1449.0,895.0,0.0,0.0,2233.0,1768.0,1322.0,132.2366485595703,-54.6751823425293,-28.884288787841797,Left
2533.69580078125,22746,1,1743.0,1499.0,2215.0,0.0,0.0,1893.0,1757.0,1397.0,132.2366485595703,-54.6751823425293,-28.884288787841797,Left
2535.69580078125,22746,1,1743.0,1543.0,3181.0,0.0,1420.0,1403.0,1766.0,1437.0,132.2366485595703,-54.6751823425293,-28.884288787841797,Left
2528.15478515625,22747,1,1739.0,1577.0,3828.0,0.0,3781.0,245.0,1767.0,1485.0,132.2366485595703,-54.6751823425293,-28.884288787841797,Left
2530.15478515625,22747,1,1741.0,1611.0,3829.0,0.0,3815.0,525.0,1767.0,1545.0,132.2366485595703,-54.6751823425293,-28.884288787841797,Left
2532.15478515625,22747,1,1752.0,1621.0,3817.0,0.0,3814.0,741.0,1762.0,1571.0,132.2366485595703,-54.6751823425293,-28.884288787841797,Left
2534.15478515625,22747,1,1756.0,1639.0,3827.0,0.0,1901.0,1272.0,1771.0,1587.0,132.2366485595703,-54.6751823425293,-28.884288787841797,Left
2536.15478515625,22747,1,1758.0,1669.0,3821.0,27.0,687.0,2149.0,1770.0,1615.0,132.2366485595703,-54.6751823425293,-28.884288787841797,Left
2528.841064453125,22748,1,1753.0,1673.0,3831.0,355.0,0.0,3819.0,1753.0,1635.0,132.2366485595703,-54.6751823425293,-28.884288787841797,Left
2530.841064453125,22748,1,1762.0,1695.0,3811.0,579.0,0.0,3813.0,1771.0,1636.0,132.2366485595703,-54.6751823425293,-28.884288787841797,Left
2532.841064453125,22748,1,1758.0,1707.0,3813.0,766.0,233.0,3800.0,1765.0,1671.0,132.2366485595703,-54.6751823425293,-28.884288787841797,Left
2534.841064453125,22748,1,1763.0,1716.0,3832.0,938.0,2159.0,3787.0,1770.0,1682.0,132.2366485595703,-54.6751823425293,-28.884288787841797,Left
2536.841064453125,22748,1,1787.0,1719.0,3879.0,1048.0,3302.0,2971.0,1783.0,1693.0,132.2366485595703,-54.6751823425293,-28.884288787841797,Left
2529.31201171875,22749,1,1931.0,1707.0,3812.0,1193.0,3810.0,148.0,1751.0,1691.0,132.2366485595703,-54.6751823425293,-28.884288787841797,Left
2531.31201171875,22749,1,1737.0,1725.0,2237.0,1261.0,3805.0,203.0,1765.0,1703.0,132.2366485595703,-54.6751823425293,-28.884288787841797,Left
2533.31201171875,22749,1,1723.0,1737.0,652.0,1357.0,3789.0,939.0,1765.0,1707.0,132.2366485595703,-54.6751823425293,-28.884288787841797,Left
2535.31201171875,22749,1,1743.0,1737.0,0.0,1416.0,3781.0,1478.0,1762.0,1711.0,132.2366485595703,-54.6751823425293,-28.884288787841797,Left
2537.31201171875,22749,1,1749.0,1737.0,0.0,1455.0,3804.0,2253.0,1753.0,1719.0,132.2366485595703,-54.6751823425293,-28.884288787841797,Left
2529.708251953125,22750,1,1752.0,1726.0,0.0,1523.0,3803.0,3818.0,1766.0,1711.0,132.2366485595703,-54.6751823425293,-28.884288787841797,Left
2531.708251953125,22750,1,1753.0,1746.0,359.0,1559.0,3781.0,3816.0,1750.0,2658.0,132.2366485595703,-54.6751823425293,-28.884288787841797,Left
2533.708251953125,22750,1,1755.0,1747.0,573.0,1575.0,3811.0,3037.0,1765.0,2412.0,132.2366485595703,-54.6751823425293,-28.884288787841797,Left
2535.708251953125,22750,1,1738.0,1717.0,782.0,1604.0,3804.0,1871.0,1761.0,1949.0,132.2366485595703,-54.6751823425293,-28.884288787841797,Left
2537.708251953125,22750,1,1758.0,1741.0,883.0,1623.0,3782.0,1387.0,1757.0,1387.0,132.2366485595703,-54.6751823425293,-28.884288787841797,Left
2529.941162109375,22751,1,1749.0,1727.0,893.0,1641.0,3775.0,0.0,1748.0,1443.0,132.2366485595703,-54.6751823425293,-28.884288787841797,Left
2531.941162109375,22751,1,1750.0,1753.0,713.0,1675.0,3795.0,0.0,1763.0,1482.0,132.2366485595703,-54.6751823425293,-28.884288787841797,Left
2533.941162109375,22751,1,1755.0,1747.0,733.0,1663.0,3775.0,735.0,1752.0,1543.0,132.2366485595703,-54.6751823425293,-28.884288787841797,Left
2535.941162109375,22751,1,1799.0,1747.0,825.0,1691.0,3775.0,1720.0,1756.0,1576.0,132.2366485595703,-54.6751823425293,-28.884288787841797,Left
2537.941162109375,22751,1,1750.0,1754.0,1011.0,1701.0,3815.0,2951.0,1747.0,1593.0,132.2366485595703,-54.6751823425293,-28.884288787841797,Left
2530.174072265625,22752,1,1758.0,1752.0,991.0,1709.0,3803.0,3803.0,1765.0,1639.0,132.2366485595703,-54.6751823425293,-28.884288787841797,Left
2532.174072265625,22752,1,1747.0,1751.0,1051.0,1715.0,3817.0,3815.0,1769.0,1642.0,132.2366485595703,-54.6751823425293,-28.884288787841797,Left
2534.174072265625,22752,1,1753.0,1754.0,1241.0,1715.0,3813.0,3811.0,1771.0,1673.0,132.2366485595703,-54.6751823425293,-28.884288787841797,Left
2536.174072265625,22752,1,1755.0,1755.0,1341.0,1707.0,3801.0,3135.0,1766.0,1669.0,132.2366485595703,-54.6751823425293,-28.884288787841797,Left
2538.174072265625,22752,1,1759.0,1755.0,1642.0,1733.0,3804.0,2213.0,1816.0,1681.0,132.2366485595703,-54.6751823425293,-28.884288787841797,Left
2530.571044921875,22753,1,1755.0,1755.0,1645.0,1717.0,3384.0,22.0,1830.0,1699.0,132.2366485595703,-54.6751823425293,-28.884288787841797,Left
2532.571044921875,22753,1,1763.0,1757.0,1239.0,1742.0,3055.0,181.0,1851.0,1707.0,139.25440979003906,-55.68501281738281,-28.483644485473633,Left
2534.571044921875,22753,1,1830.0,1757.0,1635.0,1740.0,2815.0,1007.0,1875.0,1720.0,139.25440979003906,-55.68501281738281,-28.483644485473633,Left
2536.571044921875,22753,1,1746.0,1755.0,1483.0,1739.0,2613.0,1828.0,1845.0,1703.0,139.25440979003906,-55.68501281738281,-28.483644485473633,Left
2538.571044921875,22753,1,1753.0,1711.0,1420.0,1717.0,2445.0,2373.0,1875.0,1724.0,139.25440979003906,-55.68501281738281,-28.483644485473633,Left
2540.883056640625,22754,1,1741.0,1741.0,1259.0,1751.0,2335.0,3817.0,1901.0,1719.0,139.25440979003906,-55.68501281738281,-28.483644485473633,Left
2542.883056640625,22754,1,1743.0,1764.0,1403.0,1741.0,2228.0,3821.0,1909.0,1735.0,139.25440979003906,-55.68501281738281,-28.483644485473633,Left
2544.883056640625,22754,1,1753.0,1757.0,1671.0,1727.0,2149.0,3150.0,1911.0,1727.0,139.25440979003906,-55.68501281738281,-28.483644485473633,Left
2546.883056640625,22754,1,1751.0,1757.0,1773.0,1751.0,2085.0,2516.0,1904.0,1733.0,139.25440979003906,-55.68501281738281,-28.483644485473633,Left
2548.883056640625,22754,1,1745.0,1752.0,1777.0,1754.0,2015.0,1626.0,1907.0,1742.0,139.25440979003906,-55.68501281738281,-28.483644485473633,Left
2551.000732421875,22755,1,1761.0,1759.0,1939.0,1736.0,1980.0,0.0,1878.0,1708.0,139.25440979003906,-55.68501281738281,-28.483644485473633,Left
2553.000732421875,22755,1,1813.0,1754.0,1879.0,1754.0,1942.0,0.0,1890.0,1741.0,139.25440979003906,-55.68501281738281,-28.483644485473633,Left
2555.000732421875,22755,1,1753.0,1749.0,1676.0,1754.0,1911.0,789.0,1895.0,1741.0,139.25440979003906,-55.68501281738281,-28.483644485473633,Left
2557.000732421875,22755,1,1756.0,1747.0,1661.0,1753.0,1876.0,1699.0,1895.0,1742.0,139.25440979003906,-55.68501281738281,-28.483644485473633,Left
2559.000732421875,22755,1,1762.0,1751.0,1523.0,1737.0,1868.0,2750.0,1908.0,1747.0,139.25440979003906,-55.68501281738281,-28.483644485473633,Left
2612.72314453125,22756,1,1755.0,1716.0,1509.0,1735.0,1853.0,3817.0,1897.0,1717.0,139.25440979003906,-55.68501281738281,-28.483644485473633,Left
2614.72314453125,22756,1,1806.0,1755.0,1787.0,1739.0,1832.0,3812.0,1911.0,1747.0,139.25440979003906,-55.68501281738281,-28.483644485473633,Left
2616.72314453125,22756,1,1743.0,1756.0,1779.0,1754.0,1822.0,3469.0,1897.0,1725.0,139.25440979003906,-55.68501281738281,-28.483644485473633,Left
2618.72314453125,22756,1,1757.0,1752.0,1743.0,1739.0,1817.0,2743.0,1899.0,1734.0,139.25440979003906,-55.68501281738281,-28.483644485473633,Left
2620.72314453125,22756,1,1755.0,1753.0,1915.0,1740.0,1803.0,1625.0,1885.0,1749.0,139.25440979003906,-55.68501281738281,-28.483644485473633,Left
2616.85107421875,22757,1,1753.0,1973.0,2053.0,1752.0,1805.0,0.0,1875.0,1751.0,139.25440979003906,-55.68501281738281,-28.483644485473633,Left
2618.85107421875,22757,1,1763.0,1715.0,1959.0,1755.0,1800.0,0.0,1885.0,1741.0,139.25440979003906,-55.68501281738281,-28.483644485473633,Left
2620.85107421875,22757,1,1759.0,1705.0,1669.0,1756.0,1789.0,844.0,1899.0,1747.0,139.25440979003906,-55.68501281738281,-28.483644485473633,Left
2622.85107421875,22757,1,1765.0,1705.0,1559.0,1743.0,1787.0,1629.0,1891.0,1751.0,139.25440979003906,-55.68501281738281,-28.483644485473633,Left
2624.85107421875,22757,1,1755.0,1725.0,1643.0,1751.0,1779.0,2571.0,1900.0,1743.0,139.25440979003906,-55.68501281738281,-28.483644485473633,Left
2617.833984375,22758,1,1758.0,1733.0,1518.0,1763.0,1759.0,3800.0,1917.0,1728.0,139.25440979003906,-55.68501281738281,-28.483644485473633,Left
2619.833984375,22758,1,1759.0,1740.0,1679.0,1757.0,1771.0,3811.0,1909.0,1734.0,139.25440979003906,-55.68501281738281,-28.483644485473633,Left
2621.833984375,22758,1,1755.0,1727.0,1815.0,1762.0,1775.0,3805.0,1907.0,1726.0,139.25440979003906,-55.68501281738281,-28.483644485473633,Left
2623.833984375,22758,1,1756.0,1740.0,1941.0,1747.0,1759.0,3079.0,1907.0,1727.0,139.25440979003906,-55.68501281738281,-28.483644485473633,Left
2625.833984375,22758,1,1763.0,1735.0,1899.0,1755.0,1769.0,1775.0,1884.0,1741.0,139.25440979003906,-55.68501281738281,-28.483644485473633,Left
2618.65771484375,22759,1,1762.0,1752.0,2009.0,1758.0,1764.0,61.0,1883.0,1749.0,139.25440979003906,-55.68501281738281,-28.483644485473633,Left
2620.65771484375,22759,1,1800.0,1737.0,1891.0,1741.0,1751.0,109.0,1873.0,1752.0,134.69625854492188,-53.20822525024414,-17.88498306274414,Left
2622.65771484375,22759,1,1716.0,1739.0,1542.0,1741.0,1767.0,158.0,1875.0,1747.0,134.69625854492188,-53.20822525024414,-17.88498306274414,Left
2624.65771484375,22759,1,1811.0,1757.0,1677.0,1741.0,1749.0,1395.0,1895.0,1749.0,134.69625854492188,-53.20822525024414,-17.88498306274414,Left
2626.65771484375,22759,1,1763.0,1723.0,1606.0,1735.0,1741.0,2085.0,1903.0,1733.0,134.69625854492188,-53.20822525024414,-17.88498306274414,Left
2619.416015625,22760,1,1725.0,1763.0,1609.0,1757.0,1769.0,3811.0,1901.0,1727.0,134.69625854492188,-53.20822525024414,-17.88498306274414,Left
2621.416015625,22760,1,1741.0,1757.0,1741.0,1747.0,1741.0,3947.0,1881.0,1726.0,134.69625854492188,-53.20822525024414,-17.88498306274414,Left
2623.416015625,22760,1,1725.0,1711.0,1748.0,1735.0,1749.0,2163.0,1886.0,1751.0,134.69625854492188,-53.20822525024414,-17.88498306274414,Left
2625.416015625,22760,1,1741.0,1757.0,1910.0,1747.0,1750.0,1975.0,1877.0,1751.0,134.69625854492188,-53.20822525024414,-17.88498306274414,Left
2627.416015625,22760,1,1751.0,1752.0,1919.0,1759.0,1763.0,731.0,1887.0,1746.0,134.69625854492188,-53.20822525024414,-17.88498306274414,Left
2619.980712890625,22761,1,1735.0,1737.0,2041.0,1761.0,1749.0,0.0,1842.0,1727.0,134.69625854492188,-53.20822525024414,-17.88498306274414,Left
2621.980712890625,22761,1,1724.0,1757.0,1756.0,1741.0,1768.0,0.0,1877.0,1735.0,134.69625854492188,-53.20822525024414,-17.88498306274414,Left
2623.980712890625,22761,1,1727.0,1759.0,1843.0,1762.0,1749.0,234.0,1881.0,1735.0,134.69625854492188,-53.20822525024414,-17.88498306274414,Left
2625.980712890625,22761,1,1725.0,1765.0,1542.0,1765.0,1762.0,1353.0,1883.0,1747.0,134.69625854492188,-53.20822525024414,-17.88498306274414,Left
2627.980712890625,22761,1,1709.0,1759.0,1735.0,1745.0,1763.0,2459.0,1894.0,1736.0,134.69625854492188,-53.20822525024414,-17.88498306274414,Left
2620.81787109375,22762,1,1747.0,1765.0,1525.0,1757.0,1747.0,3813.0,1903.0,1747.0,134.69625854492188,-53.20822525024414,-17.88498306274414,Left
2622.81787109375,22762,1,1755.0,1762.0,1753.0,1747.0,1757.0,3871.0,1887.0,1737.0,134.69625854492188,-53.20822525024414,-17.88498306274414,Left
2624.81787109375,22762,1,1778.0,1763.0,1706.0,1763.0,1758.0,3341.0,1877.0,1735.0,134.69625854492188,-53.20822525024414,-17.88498306274414,Left
2626.81787109375,22762,1,1727.0,1750.0,1879.0,1752.0,1750.0,2232.0,1885.0,1747.0,134.69625854492188,-53.20822525024414,-17.88498306274414,Left
2628.81787109375,22762,1,1727.0,1765.0,1894.0,1751.0,1768.0,1127.0,1867.0,1753.0,134.69625854492188,-53.20822525024414,-17.88498306274414,Left
2632.56787109375,22763,1,1735.0,1743.0,2181.0,1743.0,1767.0,0.0,1874.0,1733.0,134.69625854492188,-53.20822525024414,-17.88498306274414,Left
2634.56787109375,22763,1,1719.0,1711.0,1755.0,1759.0,1767.0,0.0,1853.0,1747.0,134.69625854492188,-53.20822525024414,-17.88498306274414,Left
2636.56787109375,22763,1,1738.0,1755.0,1591.0,1759.0,1747.0,651.0,1884.0,1753.0,134.69625854492188,-53.20822525024414,-17.88498306274414,Left
2638.56787109375,22763,1,1727.0,1763.0,1670.0,1755.0,1750.0,1623.0,1880.0,1753.0,134.69625854492188,-53.20822525024414,-17.88498306274414,Left
2640.56787109375,22763,1,1735.0,1761.0,1599.0,1757.0,1747.0,2824.0,1891.0,1747.0,134.69625854492188,-53.20822525024414,-17.88498306274414,Left
2641.3828125,22764,1,1753.0,1765.0,1460.0,1707.0,1764.0,3804.0,1879.0,1743.0,134.69625854492188,-53.20822525024414,-17.88498306274414,Left
2643.3828125,22764,1,1838.0,1743.0,1695.0,1757.0,1765.0,3747.0,1881.0,1734.0,134.69625854492188,-53.20822525024414,-17.88498306274414,Left
2645.3828125,22764,1,1749.0,1755.0,1880.0,1753.0,1767.0,3241.0,1883.0,1755.0,134.69625854492188,-53.20822525024414,-17.88498306274414,Left
2647.3828125,22764,1,1740.0,1763.0,2010.0,1755.0,1765.0,2537.0,1868.0,1756.0,134.69625854492188,-53.20822525024414,-17.88498306274414,Left
2649.3828125,22764,1,1745.0,1754.0,1797.0,1755.0,1751.0,1165.0,1871.0,1750.0,134.69625854492188,-53.20822525024414,-17.88498306274414,Left
2650.51708984375,22765,1,1742.0,1743.0,1893.0,1743.0,1747.0,0.0,1853.0,1725.0,134.69625854492188,-53.20822525024414,-17.88498306274414,Left
2652.51708984375,22765,1,1742.0,1741.0,1704.0,1756.0,1761.0,0.0,1853.0,1753.0,134.69625854492188,-53.20822525024414,-17.88498306274414,Left
2654.51708984375,22765,1,1751.0,1765.0,1752.0,1757.0,1747.0,671.0,1875.0,1753.0,134.69625854492188,-53.20822525024414,-17.88498306274414,Left
2656.51708984375,22765,1,1742.0,1757.0,1676.0,1764.0,1773.0,1531.0,1903.0,1752.0,134.69625854492188,-53.20822525024414,-17.88498306274414,Left
2658.51708984375,22765,1,1751.0,1747.0,1623.0,1759.0,1746.0,2907.0,2089.0,1733.0,134.94686889648438,-54.516605377197266,-16.602764129638672,Left
2723.139892578125,22766,1,1752.0,1745.0,1499.0,1767.0,1759.0,3796.0,2395.0,1715.0,134.94686889648438,-54.516605377197266,-16.602764129638672,Left
2725.139892578125,22766,1,1891.0,1743.0,1689.0,1741.0,1757.0,3789.0,2525.0,1734.0,134.94686889648438,-54.516605377197266,-16.602764129638672,Left
2727.139892578125,22766,1,1743.0,1763.0,1959.0,1758.0,1762.0,3351.0,2571.0,1745.0,134.94686889648438,-54.516605377197266,-16.602764129638672,Left
2729.139892578125,22766,1,1752.0,1759.0,1824.0,1746.0,1755.0,2587.0,2651.0,1735.0,134.94686889648438,-54.516605377197266,-16.602764129638672,Left
2731.139892578125,22766,1,1755.0,1757.0,1786.0,1753.0,1765.0,1261.0,2555.0,1755.0,134.94686889648438,-54.516605377197266,-16.602764129638672,Left
2724.20703125,22767,1,1753.0,1742.0,1957.0,1764.0,1767.0,0.0,2460.0,1753.0,134.94686889648438,-54.516605377197266,-16.602764129638672,Left
2726.20703125,22767,1,1757.0,1761.0,1941.0,1747.0,1757.0,75.0,2567.0,1748.0,134.94686889648438,-54.516605377197266,-16.602764129638672,Left
2728.20703125,22767,1,1759.0,1763.0,1654.0,1761.0,1755.0,823.0,2605.0,1742.0,134.94686889648438,-54.516605377197266,-16.602764129638672,Left
2730.20703125,22767,1,1758.0,1750.0,1565.0,1752.0,1755.0,1565.0,2677.0,1753.0,134.94686889648438,-54.516605377197266,-16.602764129638672,Left
2732.20703125,22767,1,1761.0,1758.0,1581.0,1763.0,1765.0,3002.0,2712.0,1754.0,134.94686889648438,-54.516605377197266,-16.602764129638672,Left
2728.35205078125,22768,1,1763.0,1758.0,1687.0,1763.0,1759.0,3817.0,2837.0,1752.0,134.94686889648438,-54.516605377197266,-16.602764129638672,Left
2730.35205078125,22768,1,1765.0,1759.0,1757.0,1755.0,1763.0,3788.0,2743.0,1749.0,134.94686889648438,-54.516605377197266,-16.602764129638672,Left
2732.35205078125,22768,1,1751.0,1759.0,1779.0,1763.0,1743.0,3467.0,2699.0,1751.0,134.94686889648438,-54.516605377197266,-16.602764129638672,Left
2734.35205078125,22768,1,1757.0,1763.0,1937.0,1757.0,1757.0,2675.0,2539.0,1727.0,134.94686889648438,-54.516605377197266,-16.602764129638672,Left
2736.35205078125,22768,1,1759.0,1746.0,1967.0,1758.0,1763.0,1166.0,2317.0,1747.0,134.94686889648438,-54.516605377197266,-16.602764129638672,Left
2728.81494140625,22769,1,1767.0,1763.0,1947.0,1764.0,1748.0,0.0,2150.0,1756.0,134.94686889648438,-54.516605377197266,-16.602764129638672,Left
2730.81494140625,22769,1,1759.0,1763.0,1769.0,1741.0,1756.0,0.0,2099.0,1749.0,134.94686889648438,-54.516605377197266,-16.602764129638672,Left
2732.81494140625,22769,1,1765.0,1763.0,1670.0,1750.0,1763.0,607.0,2106.0,1751.0,134.94686889648438,-54.516605377197266,-16.602764129638672,Left
2734.81494140625,22769,1,1763.0,1737.0,1625.0,1749.0,1762.0,1449.0,2079.0,1748.0,134.94686889648438,-54.516605377197266,-16.602764129638672,Left
2736.81494140625,22769,1,1753.0,1763.0,1619.0,1763.0,1765.0,2855.0,2159.0,1739.0,134.94686889648438,-54.516605377197266,-16.602764129638672,Left
2729.2080078125,22770,1,1764.0,1747.0,1467.0,1759.0,1757.0,3815.0,2267.0,1749.0,134.94686889648438,-54.516605377197266,-16.602764129638672,Left
2731.2080078125,22770,1,1765.0,1766.0,1643.0,1755.0,1746.0,3821.0,2246.0,1753.0,134.94686889648438,-54.516605377197266,-16.602764129638672,Left
2733.2080078125,22770,1,1941.0,1757.0,1884.0,1748.0,1735.0,3769.0,2217.0,1715.0,134.94686889648438,-54.516605377197266,-16.602764129638672,Left
2735.2080078125,22770,1,1790.0,1749.0,1911.0,1767.0,1751.0,2533.0,2149.0,1751.0,134.94686889648438,-54.516605377197266,-16.602764129638672,Left
2737.2080078125,22770,1,1750.0,1757.0,1927.0,1762.0,1763.0,378.0,1943.0,1735.0,134.94686889648438,-54.516605377197266,-16.602764129638672,Left
2729.548095703125,22771,1,1927.0,1756.0,2025.0,1750.0,1720.0,0.0,1818.0,1737.0,134.94686889648438,-54.516605377197266,-16.602764129638672,Left
2731.548095703125,22771,1,1705.0,1749.0,1865.0,1759.0,1762.0,0.0,1705.0,1735.0,134.94686889648438,-54.516605377197266,-16.602764129638672,Left
2733.548095703125,22771,1,1687.0,1763.0,1783.0,1753.0,1765.0,0.0,1700.0,1742.0,134.94686889648438,-54.516605377197266,-16.602764129638672,Left
2735.548095703125,22771,1,1707.0,1759.0,1483.0,1745.0,1755.0,917.0,1720.0,1755.0,134.94686889648438,-54.516605377197266,-16.602764129638672,Left
2737.548095703125,22771,1,1723.0,1762.0,1496.0,1758.0,1756.0,2460.0,1756.0,1739.0,134.94686889648438,-54.516605377197266,-16.602764129638672,Left
2729.865966796875,22772,1,1726.0,1765.0,1543.0,1764.0,1755.0,3811.0,1848.0,1748.0,134.94686889648438,-54.516605377197266,-16.602764129638672,Left
2731.865966796875,22772,1,1737.0,1756.0,1743.0,1764.0,1759.0,3683.0,1807.0,1751.0,134.24594116210938,-55.47178268432617,-16.40436363220215,Left
2733.865966796875,22772,1,1741.0,1755.0,1763.0,1762.0,1743.0,2659.0,1705.0,1753.0,134.24594116210938,-55.47178268432617,-16.40436363220215,Left
2735.865966796875,22772,1,1755.0,1747.0,1779.0,1764.0,1755.0,2057.0,1741.0,1739.0,134.24594116210938,-55.47178268432617,-16.40436363220215,Left
2737.865966796875,22772,1,1755.0,1763.0,1926.0,1741.0,1758.0,610.0,1607.0,1741.0,134.24594116210938,-55.47178268432617,-16.40436363220215,Left
2730.378173828125,22773,1,1775.0,1755.0,1976.0,1754.0,1757.0,0.0,1523.0,1753.0,134.24594116210938,-55.47178268432617,-16.40436363220215,Left
2732.378173828125,22773,1,2126.0,1757.0,1959.0,1756.0,1755.0,0.0,1636.0,1737.0,134.24594116210938,-55.47178268432617,-16.40436363220215,Left
2734.378173828125,22773,1,1977.0,1757.0,1831.0,1735.0,1757.0,0.0,1900.0,1737.0,134.24594116210938,-55.47178268432617,-16.40436363220215,Left
2736.378173828125,22773,1,2035.0,1753.0,1662.0,1763.0,1757.0,490.0,1881.0,1756.0,134.24594116210938,-55.47178268432617,-16.40436363220215,Left
2738.378173828125,22773,1,1715.0,1763.0,1628.0,1762.0,1765.0,2217.0,1919.0,1753.0,134.24594116210938,-55.47178268432617,-16.40436363220215,Left
2743.091064453125,22774,1,1741.0,1741.0,1591.0,1725.0,0.0,3368.0,1957.0,1733.0,134.24594116210938,-55.47178268432617,-16.40436363220215,Left
2745.091064453125,22774,1,1706.0,1752.0,1797.0,1756.0,0.0,3015.0,2012.0,1733.0,134.24594116210938,-55.47178268432617,-16.40436363220215,Left
2747.091064453125,22774,1,1737.0,1757.0,1831.0,1747.0,0.0,2461.0,1883.0,1751.0,134.24594116210938,-55.47178268432617,-16.40436363220215,Left
2749.091064453125,22774,1,1747.0,1767.0,1812.0,1763.0,0.0,1965.0,1802.0,1757.0,134.24594116210938,-55.47178268432617,-16.40436363220215,Left
2751.091064453125,22774,1,1757.0,1747.0,1907.0,1765.0,0.0,405.0,1580.0,1755.0,134.24594116210938,-55.47178268432617,-16.40436363220215,Left
2750.756103515625,22775,1,1812.0,1759.0,1833.0,1763.0,0.0,0.0,1527.0,1754.0,134.24594116210938,-55.47178268432617,-16.40436363220215,Left
2752.756103515625,22775,1,1740.0,1763.0,1823.0,1764.0,0.0,0.0,1509.0,1739.0,134.24594116210938,-55.47178268432617,-16.40436363220215,Left
2754.756103515625,22775,1,1753.0,1739.0,1611.0,1766.0,3785.0,154.0,1643.0,1751.0,134.24594116210938,-55.47178268432617,-16.40436363220215,Left
2756.756103515625,22775,1,1739.0,1764.0,1575.0,1749.0,304.0,1033.0,1704.0,1752.0,134.24594116210938,-55.47178268432617,-16.40436363220215,Left
2758.756103515625,22775,1,1734.0,1753.0,1515.0,1753.0,0.0,2772.0,1862.0,1747.0,134.24594116210938,-55.47178268432617,-16.40436363220215,Left
2815.442138671875,22776,1,1748.0,1759.0,1483.0,1771.0,3787.0,3797.0,2013.0,1726.0,134.24594116210938,-55.47178268432617,-16.40436363220215,Left
2817.442138671875,22776,1,1739.0,1703.0,1684.0,1763.0,3812.0,3214.0,2119.0,1755.0,134.24594116210938,-55.47178268432617,-16.40436363220215,Left
2819.442138671875,22776,1,1725.0,1756.0,1671.0,1757.0,3785.0,2601.0,1957.0,1751.0,134.24594116210938,-55.47178268432617,-16.40436363220215,Left
2821.442138671875,22776,1,1746.0,1755.0,1899.0,1764.0,3788.0,1944.0,1873.0,1752.0,134.24594116210938,-55.47178268432617,-16.40436363220215,Left
2823.442138671875,22776,1,1749.0,1757.0,2017.0,1759.0,3785.0,296.0,1679.0,1749.0,134.24594116210938,-55.47178268432617,-16.40436363220215,Left
2816.68505859375,22777,1,1754.0,1749.0,2040.0,1746.0,3695.0,0.0,1577.0,1735.0,134.24594116210938,-55.47178268432617,-16.40436363220215,Left
2818.68505859375,22777,1,1757.0,1747.0,1839.0,1762.0,3221.0,0.0,1607.0,1735.0,134.24594116210938,-55.47178268432617,-16.40436363220215,Left
2820.68505859375,22777,1,1749.0,1755.0,1724.0,1747.0,2887.0,599.0,1735.0,1752.0,134.24594116210938,-55.47178268432617,-16.40436363220215,Left
2822.68505859375,22777,1,1767.0,1762.0,1553.0,1764.0,2647.0,1373.0,1815.0,1755.0,134.24594116210938,-55.47178268432617,-16.40436363220215,Left
2824.68505859375,22777,1,1763.0,1763.0,1433.0,1765.0,2484.0,3061.0,2053.0,1735.0,134.24594116210938,-55.47178268432617,-16.40436363220215,Left
2817.679931640625,22778,1,1758.0,1749.0,1647.0,1765.0,2329.0,3801.0,2189.0,1747.0,134.24594116210938,-55.47178268432617,-16.40436363220215,Left
2819.679931640625,22778,1,1769.0,1745.0,1556.0,1758.0,2216.0,3785.0,2157.0,1753.0,134.24594116210938,-55.47178268432617,-16.40436363220215,Left
2821.679931640625,22778,1,1768.0,1754.0,1869.0,1761.0,2136.0,3109.0,2013.0,1752.0,134.24594116210938,-55.47178268432617,-16.40436363220215,Left
2823.679931640625,22778,1,1768.0,1711.0,1813.0,1758.0,2051.0,2207.0,1965.0,1753.0,135.52809143066406,-54.89748001098633,-17.270565032958984,Left
2825.679931640625,22778,1,1779.0,1758.0,1939.0,1755.0,1994.0,474.0,1725.0,1718.0,135.52809143066406,-54.89748001098633,-17.270565032958984,Left
2818.155029296875,22779,1,2287.0,1767.0,1970.0,1762.0,1938.0,0.0,1723.0,1752.0,135.52809143066406,-54.89748001098633,-17.270565032958984,Left
2820.155029296875,22779,1,1739.0,1755.0,1805.0,1766.0,1914.0,0.0,1735.0,1757.0,135.52809143066406,-54.89748001098633,-17.270565032958984,Left
2822.155029296875,22779,1,1687.0,1752.0,1575.0,1725.0,1193.0,1083.0,1817.0,1739.0,135.52809143066406,-54.89748001098633,-17.270565032958984,Left
2824.155029296875,22779,1,1749.0,1764.0,1675.0,1763.0,875.0,1139.0,1899.0,1752.0,135.52809143066406,-54.89748001098633,-17.270565032958984,Left
2826.155029296875,22779,1,1651.0,1740.0,1490.0,1749.0,889.0,2418.0,1971.0,1750.0,135.52809143066406,-54.89748001098633,-17.270565032958984,Left
2818.7529296875,22780,1,1833.0,1741.0,1615.0,1755.0,757.0,3818.0,2067.0,1749.0,135.52809143066406,-54.89748001098633,-17.270565032958984,Left
2820.7529296875,22780,1,1823.0,1757.0,1785.0,1761.0,570.0,3411.0,2069.0,1755.0,135.52809143066406,-54.89748001098633,-17.270565032958984,Left
2822.7529296875,22780,1,1723.0,1763.0,1883.0,1768.0,727.0,2431.0,1971.0,1748.0,135.52809143066406,-54.89748001098633,-17.270565032958984,Left
2824.7529296875,22780,1,1716.0,1763.0,1845.0,1763.0,627.0,1847.0,1851.0,1747.0,135.52809143066406,-54.89748001098633,-17.270565032958984,Left
2826.7529296875,22780,1,1737.0,1745.0,1977.0,1759.0,611.0,83.0,1645.0,1735.0,135.52809143066406,-54.89748001098633,-17.270565032958984,Left
2819.132080078125,22781,1,1741.0,1756.0,1959.0,1765.0,683.0,0.0,1459.0,1749.0,135.52809143066406,-54.89748001098633,-17.270565032958984,Left
2821.132080078125,22781,1,1741.0,1763.0,1769.0,1767.0,721.0,0.0,1443.0,1751.0,135.52809143066406,-54.89748001098633,-17.270565032958984,Left
2823.132080078125,22781,1,1748.0,1753.0,1717.0,1747.0,821.0,375.0,1523.0,1756.0,135.52809143066406,-54.89748001098633,-17.270565032958984,Left
2825.132080078125,22781,1,1752.0,1755.0,1753.0,1765.0,871.0,1251.0,1615.0,1749.0,135.52809143066406,-54.89748001098633,-17.270565032958984,Left
2827.132080078125,22781,1,1753.0,1759.0,1435.0,1763.0,997.0,3066.0,1727.0,1757.0,135.52809143066406,-54.89748001098633,-17.270565032958984,Left
2822.083984375,22782,1,1755.0,1757.0,1577.0,1763.0,1087.0,3804.0,1917.0,1753.0,135.52809143066406,-54.89748001098633,-17.270565032958984,Left
2824.083984375,22782,1,1745.0,1750.0,1737.0,1765.0,967.0,3896.0,1927.0,1711.0,135.52809143066406,-54.89748001098633,-17.270565032958984,Left
2826.083984375,22782,1,1745.0,1719.0,1864.0,1734.0,0.0,2159.0,2157.0,1747.0,135.52809143066406,-54.89748001098633,-17.270565032958984,Left
2828.083984375,22782,1,1741.0,1749.0,1913.0,1763.0,1452.0,2074.0,2008.0,1753.0,135.52809143066406,-54.89748001098633,-17.270565032958984,Left
2830.083984375,22782,1,1755.0,1764.0,1939.0,1745.0,1291.0,226.0,1773.0,1750.0,135.52809143066406,-54.89748001098633,-17.270565032958984,Left
2830.833984375,22783,1,1769.0,1757.0,1702.0,2331.0,724.0,0.0,1544.0,1737.0,135.52809143066406,-54.89748001098633,-17.270565032958984,Left
2832.833984375,22783,1,1723.0,1717.0,1759.0,2963.0,1260.0,295.0,1595.0,1721.0,135.52809143066406,-54.89748001098633,-17.270565032958984,Left
2834.833984375,22783,1,1885.0,1757.0,1871.0,3448.0,1449.0,359.0,1753.0,1755.0,135.52809143066406,-54.89748001098633,-17.270565032958984,Left
2836.833984375,22783,1,1721.0,1755.0,1743.0,3591.0,1400.0,1209.0,1705.0,1755.0,135.52809143066406,-54.89748001098633,-17.270565032958984,Left
2838.833984375,22783,1,1715.0,1763.0,1545.0,3822.0,1267.0,3178.0,1827.0,1753.0,135.52809143066406,-54.89748001098633,-17.270565032958984,Left
2841.4091796875,22784,1,1737.0,1754.0,1518.0,3826.0,1273.0,3703.0,1897.0,1717.0,135.52809143066406,-54.89748001098633,-17.270565032958984,Left
2843.4091796875,22784,1,1774.0,1759.0,1645.0,3493.0,1317.0,3401.0,1963.0,1754.0,135.52809143066406,-54.89748001098633,-17.270565032958984,Left
2845.4091796875,22784,1,1721.0,1755.0,1695.0,3163.0,1311.0,2623.0,1845.0,1736.0,135.52809143066406,-54.89748001098633,-17.270565032958984,Left
2847.4091796875,22784,1,1739.0,1756.0,1839.0,3629.0,1371.0,2070.0,1855.0,1751.0,135.52809143066406,-54.89748001098633,-17.270565032958984,Left
2849.4091796875,22784,1,1769.0,1757.0,2009.0,2964.0,1315.0,189.0,1724.0,1737.0,135.52809143066406,-54.89748001098633,-17.270565032958984,Left
2850.89111328125,22785,1,1749.0,1733.0,1894.0,2853.0,1405.0,0.0,1676.0,1718.0,135.52809143066406,-54.89748001098633,-17.270565032958984,Left
2852.89111328125,22785,1,1916.0,1757.0,1823.0,2731.0,1322.0,0.0,1764.0,1749.0,136.48582458496094,-54.65717315673828,-18.286928176879883,Left
2854.89111328125,22785,1,1719.0,1762.0,1740.0,2919.0,1427.0,543.0,1717.0,1753.0,136.48582458496094,-54.65717315673828,-18.286928176879883,Left
2856.89111328125,22785,1,1739.0,1763.0,1603.0,2746.0,1235.0,1395.0,1769.0,1735.0,136.48582458496094,-54.65717315673828,-18.286928176879883,Left
2858.89111328125,22785,1,1747.0,1763.0,1561.0,2793.0,1737.0,3444.0,1771.0,1727.0,136.48582458496094,-54.65717315673828,-18.286928176879883,Left
2860.8291015625,22786,1,1733.0,1748.0,1527.0,2408.0,1398.0,3799.0,1870.0,1723.0,136.48582458496094,-54.65717315673828,-18.286928176879883,Left
2862.8291015625,22786,1,1723.0,1759.0,1717.0,2407.0,1381.0,3579.0,1955.0,1749.0,136.48582458496094,-54.65717315673828,-18.286928176879883,Left
2864.8291015625,22786,1,1721.0,1747.0,1907.0,2282.0,1519.0,2873.0,1867.0,1755.0,136.48582458496094,-54.65717315673828,-18.286928176879883,Left
2866.8291015625,22786,1,1740.0,1745.0,1847.0,2399.0,1427.0,2394.0,1727.0,1756.0,136.48582458496094,-54.65717315673828,-18.286928176879883,Left
2868.8291015625,22786,1,1741.0,1759.0,2007.0,2239.0,1427.0,519.0,1609.0,1739.0,136.48582458496094,-54.65717315673828,-18.286928176879883,Left
2873.404052734375,22787,1,1752.0,1762.0,2004.0,2173.0,1405.0,0.0,1560.0,1725.0,136.48582458496094,-54.65717315673828,-18.286928176879883,Left
2875.404052734375,22787,1,1728.0,1767.0,1851.0,2303.0,1492.0,0.0,1677.0,1753.0,136.48582458496094,-54.65717315673828,-18.286928176879883,Left
2877.404052734375,22787,1,1723.0,1759.0,1513.0,2280.0,1587.0,922.0,1753.0,1753.0,136.48582458496094,-54.65717315673828,-18.286928176879883,Left
2879.404052734375,22787,1,1739.0,1756.0,1721.0,2392.0,1525.0,1709.0,1751.0,1754.0,136.48582458496094,-54.65717315673828,-18.286928176879883,Left
2881.404052734375,22787,1,1741.0,1757.0,1387.0,2077.0,1432.0,3776.0,1927.0,1753.0,136.48582458496094,-54.65717315673828,-18.286928176879883,Left
2885.106201171875,22788,1,1747.0,1756.0,1451.0,2079.0,1295.0,3817.0,1983.0,1734.0,136.48582458496094,-54.65717315673828,-18.286928176879883,Left
2887.106201171875,22788,1,1725.0,1759.0,1805.0,2135.0,1816.0,3813.0,1996.0,1753.0,136.48582458496094,-54.65717315673828,-18.286928176879883,Left
2889.106201171875,22788,1,1726.0,1763.0,1813.0,2245.0,1385.0,2538.0,2053.0,1753.0,136.48582458496094,-54.65717315673828,-18.286928176879883,Left
2891.106201171875,22788,1,1741.0,1743.0,1870.0,1963.0,1460.0,2131.0,2037.0,1756.0,136.48582458496094,-54.65717315673828,-18.286928176879883,Left
2893.106201171875,22788,1,1758.0,1763.0,2040.0,2101.0,1674.0,163.0,1819.0,1751.0,136.48582458496094,-54.65717315673828,-18.286928176879883,Left
2891.68994140625,22789,1,1750.0,1759.0,1874.0,2025.0,1451.0,0.0,1653.0,1739.0,136.48582458496094,-54.65717315673828,-18.286928176879883,Left
2893.68994140625,22789,1,1720.0,1736.0,1807.0,2031.0,1630.0,0.0,1689.0,1752.0,136.48582458496094,-54.65717315673828,-18.286928176879883,Left
2895.68994140625,22789,1,1737.0,1761.0,1682.0,2235.0,1489.0,746.0,1711.0,1751.0,136.48582458496094,-54.65717315673828,-18.286928176879883,Left
2897.68994140625,22789,1,1784.0,1763.0,1609.0,2041.0,1541.0,1401.0,1789.0,1752.0,136.48582458496094,-54.65717315673828,-18.286928176879883,Left
2899.68994140625,22789,1,1740.0,1757.0,1530.0,1899.0,1677.0,3450.0,1961.0,1756.0,136.48582458496094,-54.65717315673828,-18.286928176879883,Left
2900.81005859375,22790,1,1733.0,1763.0,1613.0,2065.0,1453.0,3809.0,1944.0,1725.0,136.48582458496094,-54.65717315673828,-18.286928176879883,Left
2902.81005859375,22790,1,1931.0,1757.0,1804.0,2071.0,1477.0,3872.0,1975.0,1753.0,136.48582458496094,-54.65717315673828,-18.286928176879883,Left
2904.81005859375,22790,1,1736.0,1765.0,1879.0,2104.0,1786.0,2525.0,1900.0,1756.0,136.48582458496094,-54.65717315673828,-18.286928176879883,Left
2906.81005859375,22790,1,1743.0,1758.0,1875.0,2125.0,1611.0,2009.0,1763.0,1736.0,136.48582458496094,-54.65717315673828,-18.286928176879883,Left
2908.81005859375,22790,1,1739.0,1763.0,1960.0,1895.0,1566.0,41.0,1609.0,1741.0,136.48582458496094,-54.65717315673828,-18.286928176879883,Left
2916.524169921875,22791,1,1738.0,1756.0,1769.0,1939.0,1549.0,0.0,1553.0,1753.0,136.48582458496094,-54.65717315673828,-18.286928176879883,Left
2918.524169921875,22791,1,1751.0,1765.0,1717.0,2229.0,1542.0,0.0,1581.0,1749.0,136.48582458496094,-54.65717315673828,-18.286928176879883,Left
2920.524169921875,22791,1,1723.0,1754.0,1599.0,1861.0,1564.0,740.0,1659.0,1755.0,136.48582458496094,-54.65717315673828,-18.286928176879883,Left
2922.524169921875,22791,1,1739.0,1757.0,1604.0,1916.0,1546.0,1541.0,1683.0,1753.0,136.40200805664062,-54.871822357177734,-18.57061195373535,Left
2924.524169921875,22791,1,1740.0,1764.0,1681.0,2055.0,1587.0,3654.0,1847.0,1751.0,136.40200805664062,-54.871822357177734,-18.57061195373535,Left
2922.765869140625,22792,1,1747.0,1764.0,1673.0,2083.0,1571.0,3811.0,1919.0,1752.0,136.40200805664062,-54.871822357177734,-18.57061195373535,Left
2924.765869140625,22792,1,1753.0,1747.0,1751.0,2011.0,1663.0,3784.0,1818.0,1755.0,136.40200805664062,-54.871822357177734,-18.57061195373535,Left
2926.765869140625,22792,1,1756.0,1763.0,1898.0,1811.0,1621.0,2778.0,1735.0,1755.0,136.40200805664062,-54.871822357177734,-18.57061195373535,Left
2928.765869140625,22792,1,1721.0,1770.0,1839.0,1785.0,1527.0,1683.0,1833.0,1721.0,136.40200805664062,-54.871822357177734,-18.57061195373535,Left
2930.765869140625,22792,1,1747.0,1763.0,1926.0,1741.0,1589.0,0.0,1749.0,1743.0,136.40200805664062,-54.871822357177734,-18.57061195373535,Left
2930.86376953125,22793,1,1747.0,1736.0,1935.0,2132.0,1753.0,0.0,1737.0,1739.0,136.40200805664062,-54.871822357177734,-18.57061195373535,Left
2932.86376953125,22793,1,2004.0,1745.0,1626.0,2087.0,1567.0,308.0,1805.0,1754.0,136.40200805664062,-54.871822357177734,-18.57061195373535,Left
2934.86376953125,22793,1,2038.0,1746.0,1681.0,1981.0,1515.0,340.0,1971.0,1755.0,136.40200805664062,-54.871822357177734,-18.57061195373535,Left
2936.86376953125,22793,1,1717.0,1763.0,1721.0,1890.0,1691.0,1216.0,1958.0,1755.0,136.40200805664062,-54.871822357177734,-18.57061195373535,Left
2938.86376953125,22793,1,1714.0,1747.0,1574.0,2021.0,1611.0,3323.0,2027.0,1735.0,136.40200805664062,-54.871822357177734,-18.57061195373535,Left
2940.56298828125,22794,1,1727.0,1763.0,1607.0,1901.0,1563.0,3546.0,2083.0,1737.0,136.40200805664062,-54.871822357177734,-18.57061195373535,Left
2942.56298828125,22794,1,1717.0,1762.0,1787.0,1854.0,1593.0,2655.0,2043.0,1755.0,136.40200805664062,-54.871822357177734,-18.57061195373535,Left
2944.56298828125,22794,1,1725.0,1757.0,1871.0,1944.0,1609.0,2199.0,1884.0,1755.0,136.40200805664062,-54.871822357177734,-18.57061195373535,Left
2946.56298828125,22794,1,1734.0,1748.0,1753.0,2021.0,1639.0,1719.0,1810.0,1757.0,136.40200805664062,-54.871822357177734,-18.57061195373535,Left
2948.56298828125,22794,1,1736.0,1764.0,2004.0,1701.0,1580.0,0.0,1613.0,1757.0,136.40200805664062,-54.871822357177734,-18.57061195373535,Left
2951.81396484375,22795,1,1747.0,1762.0,1812.0,1813.0,1685.0,0.0,1619.0,1717.0,136.40200805664062,-54.871822357177734,-18.57061195373535,Left
2953.81396484375,22795,1,1875.0,1755.0,1599.0,1960.0,1572.0,0.0,1671.0,1754.0,136.40200805664062,-54.871822357177734,-18.57061195373535,Left
2955.81396484375,22795,1,1721.0,1765.0,1749.0,2249.0,1630.0,805.0,1685.0,1737.0,136.40200805664062,-54.871822357177734,-18.57061195373535,Left
2957.81396484375,22795,1,1737.0,1761.0,1670.0,1947.0,1641.0,1605.0,1671.0,1757.0,136.40200805664062,-54.871822357177734,-18.57061195373535,Left
2959.81396484375,22795,1,1741.0,1764.0,1542.0,1771.0,1663.0,3788.0,1875.0,1752.0,136.40200805664062,-54.871822357177734,-18.57061195373535,Left
2960.787109375,22796,1,1747.0,1762.0,1733.0,1967.0,1663.0,3785.0,1930.0,1737.0,136.40200805664062,-54.871822357177734,-18.57061195373535,Left
2962.787109375,22796,1,1755.0,1751.0,1549.0,1695.0,1676.0,3364.0,1948.0,1751.0,136.40200805664062,-54.871822357177734,-18.57061195373535,Left
2964.787109375,22796,1,1735.0,1763.0,1893.0,1823.0,1614.0,2743.0,1932.0,1755.0,136.40200805664062,-54.871822357177734,-18.57061195373535,Left
2966.787109375,22796,1,1743.0,1761.0,1917.0,1789.0,1627.0,2189.0,1856.0,1753.0,136.40200805664062,-54.871822357177734,-18.57061195373535,Left
2968.787109375,22796,1,1773.0,1764.0,1901.0,2045.0,1595.0,155.0,1692.0,1736.0,136.40200805664062,-54.871822357177734,-18.57061195373535,Left
2971.2431640625,22797,1,1751.0,1735.0,1820.0,1911.0,1591.0,0.0,1749.0,1749.0,136.40200805664062,-54.871822357177734,-18.57061195373535,Left
2973.2431640625,22797,1,1991.0,1759.0,1867.0,1990.0,1611.0,218.0,1869.0,1727.0,136.40200805664062,-54.871822357177734,-18.57061195373535,Left
2975.2431640625,22797,1,1735.0,1757.0,1634.0,1773.0,1806.0,1179.0,1876.0,1779.0,136.40200805664062,-54.871822357177734,-18.57061195373535,Left
2977.2431640625,22797,1,1725.0,1757.0,1619.0,2069.0,1776.0,1975.0,1866.0,1779.0,136.40200805664062,-54.871822357177734,-18.57061195373535,Left
2979.2431640625,22797,1,1745.0,1736.0,1492.0,1863.0,1627.0,3803.0,1965.0,1717.0,136.40200805664062,-54.871822357177734,-18.57061195373535,Left
2981.949951171875,22798,1,1735.0,1761.0,1623.0,1881.0,1587.0,3800.0,2022.0,1751.0,136.40200805664062,-54.871822357177734,-18.57061195373535,Left
2983.949951171875,22798,1,1726.0,1722.0,1791.0,1895.0,1743.0,3527.0,2084.0,1727.0,136.4442596435547,-55.09184265136719,-18.947031021118164,Left
2985.949951171875,22798,1,1733.0,1748.0,1804.0,2040.0,1574.0,2823.0,1943.0,1784.0,136.4442596435547,-55.09184265136719,-18.947031021118164,Left
2987.949951171875,22798,1,1747.0,1757.0,1847.0,1531.0,1673.0,2161.0,1822.0,1803.0,136.4442596435547,-55.09184265136719,-18.947031021118164,Left
2989.949951171875,22798,1,1751.0,1757.0,2037.0,1880.0,1673.0,8.0,1611.0,2085.0,136.4442596435547,-55.09184265136719,-18.947031021118164,Left
2990.864990234375,22799,1,1747.0,1765.0,1887.0,1737.0,1691.0,0.0,1502.0,1753.0,136.4442596435547,-55.09184265136719,-18.947031021118164,Left
2992.864990234375,22799,1,1737.0,1748.0,1751.0,1919.0,1688.0,0.0,1635.0,1832.0,136.4442596435547,-55.09184265136719,-18.947031021118164,Left
2994.864990234375,22799,1,1767.0,1745.0,1741.0,1935.0,1597.0,851.0,1685.0,1719.0,136.4442596435547,-55.09184265136719,-18.947031021118164,Left
2996.864990234375,22799,1,1737.0,1759.0,1711.0,1723.0,1723.0,1653.0,1701.0,1581.0,136.4442596435547,-55.09184265136719,-18.947031021118164,Left
2998.864990234375,22799,1,1741.0,1759.0,1490.0,2158.0,1709.0,3786.0,1915.0,1595.0,136.4442596435547,-55.09184265136719,-18.947031021118164,Left
3000.488037109375,22800,1,1732.0,1759.0,1519.0,1599.0,1695.0,3870.0,2001.0,1627.0,136.4442596435547,-55.09184265136719,-18.947031021118164,Left
3002.488037109375,22800,1,1975.0,1745.0,1772.0,1972.0,1663.0,3030.0,2028.0,1645.0,136.4442596435547,-55.09184265136719,-18.947031021118164,Left
3004.488037109375,22800,1,1724.0,1761.0,1821.0,1727.0,1685.0,2377.0,1938.0,1651.0,136.4442596435547,-55.09184265136719,-18.947031021118164,Left
3006.488037109375,22800,1,1739.0,1758.0,1839.0,1869.0,1631.0,1821.0,1839.0,1657.0,136.4442596435547,-55.09184265136719,-18.947031021118164,Left
3008.488037109375,22800,1,1751.0,1757.0,1975.0,1705.0,1669.0,0.0,1611.0,2013.0,136.4442596435547,-55.09184265136719,-18.947031021118164,Left
3016.43798828125,22801,1,1754.0,1739.0,1821.0,1990.0,1845.0,0.0,1655.0,1683.0,136.4442596435547,-55.09184265136719,-18.947031021118164,Left
3018.43798828125,22801,1,1709.0,1766.0,1828.0,1901.0,1652.0,0.0,1797.0,1686.0,136.4442596435547,-55.09184265136719,-18.947031021118164,Left
3020.43798828125,22801,1,1741.0,1763.0,1661.0,1765.0,1707.0,919.0,1767.0,1638.0,136.4442596435547,-55.09184265136719,-18.947031021118164,Left
3022.43798828125,22801,1,1741.0,1765.0,1843.0,1846.0,1695.0,1691.0,1741.0,1644.0,136.4442596435547,-55.09184265136719,-18.947031021118164,Left
3024.43798828125,22801,1,1725.0,1757.0,1579.0,1853.0,1651.0,3801.0,1927.0,1671.0,136.4442596435547,-55.09184265136719,-18.947031021118164,Left
3021.799072265625,22802,1,1750.0,1739.0,1371.0,1715.0,1699.0,3807.0,2053.0,1705.0,136.4442596435547,-55.09184265136719,-18.947031021118164,Left
3023.799072265625,22802,1,1875.0,1747.0,1671.0,1832.0,1643.0,3374.0,2106.0,1692.0,136.4442596435547,-55.09184265136719,-18.947031021118164,Left
3025.799072265625,22802,1,1746.0,1747.0,1914.0,1883.0,1773.0,2585.0,1977.0,1758.0,136.4442596435547,-55.09184265136719,-18.947031021118164,Left
3027.799072265625,22802,1,1748.0,1747.0,1951.0,1899.0,1699.0,1929.0,1897.0,1847.0,136.4442596435547,-55.09184265136719,-18.947031021118164,Left
3029.799072265625,22802,1,1871.0,1765.0,2040.0,1672.0,1594.0,0.0,1693.0,1875.0,136.4442596435547,-55.09184265136719,-18.947031021118164,Left
3031.36181640625,22803,1,1861.0,1749.0,1851.0,2053.0,1755.0,0.0,1678.0,1831.0,136.4442596435547,-55.09184265136719,-18.947031021118164,Left
3033.36181640625,22803,1,1659.0,1766.0,1819.0,1491.0,1747.0,0.0,1677.0,1787.0,136.4442596435547,-55.09184265136719,-18.947031021118164,Left
3035.36181640625,22803,1,1689.0,1752.0,1633.0,1928.0,1685.0,637.0,1671.0,2019.0,136.4442596435547,-55.09184265136719,-18.947031021118164,Left
3037.36181640625,22803,1,1705.0,1751.0,1608.0,2057.0,1641.0,1397.0,1685.0,2197.0,136.4442596435547,-55.09184265136719,-18.947031021118164,Left
3039.36181640625,22803,1,1711.0,1762.0,1486.0,1727.0,1721.0,3757.0,1755.0,1951.0,136.4442596435547,-55.09184265136719,-18.947031021118164,Left
3040.80615234375,22804,1,1725.0,1759.0,1607.0,1849.0,1803.0,3814.0,1884.0,1579.0,136.4442596435547,-55.09184265136719,-18.947031021118164,Left
3042.80615234375,22804,1,1679.0,1743.0,1844.0,1636.0,1671.0,3027.0,1963.0,1712.0,136.4442596435547,-55.09184265136719,-18.947031021118164,Left
3044.80615234375,22804,1,1722.0,1762.0,1848.0,1895.0,1643.0,2479.0,1879.0,1640.0,136.4442596435547,-55.09184265136719,-18.947031021118164,Left
3046.80615234375,22804,1,1726.0,1753.0,1828.0,1772.0,1693.0,1880.0,1768.0,1619.0,137.0763702392578,-55.10858917236328,-19.68581771850586,Left
3048.80615234375,22804,1,1727.0,1762.0,1981.0,1757.0,1615.0,0.0,1622.0,1518.0,137.0763702392578,-55.10858917236328,-19.68581771850586,Left
3109.9619140625,22805,1,1742.0,1746.0,1827.0,1931.0,2139.0,0.0,1604.0,1618.0,137.0763702392578,-55.10858917236328,-19.68581771850586,Left
3111.9619140625,22805,1,1721.0,1722.0,1745.0,1885.0,1945.0,0.0,1751.0,1653.0,137.0763702392578,-55.10858917236328,-19.68581771850586,Left
3113.9619140625,22805,1,1723.0,1759.0,1699.0,1811.0,1605.0,875.0,1773.0,1573.0,137.0763702392578,-55.10858917236328,-19.68581771850586,Left
3115.9619140625,22805,1,1735.0,1765.0,1656.0,1815.0,1669.0,1619.0,1783.0,1578.0,137.0763702392578,-55.10858917236328,-19.68581771850586,Left
3117.9619140625,22805,1,1740.0,1758.0,1503.0,1956.0,1683.0,3819.0,1891.0,1598.0,137.0763702392578,-55.10858917236328,-19.68581771850586,Left
3110.946044921875,22806,1,1747.0,1754.0,1631.0,1919.0,1612.0,3807.0,1831.0,1637.0,137.0763702392578,-55.10858917236328,-19.68581771850586,Left
3112.946044921875,22806,1,1752.0,1761.0,1721.0,1749.0,1766.0,3653.0,1835.0,1645.0,137.0763702392578,-55.10858917236328,-19.68581771850586,Left
3114.946044921875,22806,1,1751.0,1765.0,1845.0,1786.0,1771.0,2764.0,1781.0,1659.0,137.0763702392578,-55.10858917236328,-19.68581771850586,Left
3116.946044921875,22806,1,1741.0,1763.0,1832.0,1503.0,1691.0,1968.0,1769.0,1682.0,137.0763702392578,-55.10858917236328,-19.68581771850586,Left
3118.946044921875,22806,1,1747.0,1762.0,1977.0,2059.0,1662.0,0.0,1637.0,1703.0,137.0763702392578,-55.10858917236328,-19.68581771850586,Left
3111.453125,22807,1,1755.0,1749.0,1907.0,1789.0,1625.0,0.0,1567.0,1910.0,137.0763702392578,-55.10858917236328,-19.68581771850586,Left
3113.453125,22807,1,1755.0,1751.0,1839.0,1646.0,1621.0,431.0,1611.0,2013.0,137.0763702392578,-55.10858917236328,-19.68581771850586,Left
3115.453125,22807,1,1743.0,1741.0,1587.0,1771.0,1805.0,1349.0,1687.0,1967.0,137.0763702392578,-55.10858917236328,-19.68581771850586,Left
3117.453125,22807,1,1753.0,1741.0,1489.0,1843.0,1529.0,2091.0,1811.0,1805.0,137.0763702392578,-55.10858917236328,-19.68581771850586,Left
3119.453125,22807,1,1751.0,1758.0,1626.0,1889.0,1917.0,3800.0,2035.0,1640.0,137.0763702392578,-55.10858917236328,-19.68581771850586,Left
3112.10400390625,22808,1,1752.0,1759.0,1708.0,2140.0,1773.0,3819.0,2079.0,1821.0,137.0763702392578,-55.10858917236328,-19.68581771850586,Left
3114.10400390625,22808,1,1759.0,1755.0,1831.0,1319.0,1742.0,3817.0,1979.0,1938.0,137.0763702392578,-55.10858917236328,-19.68581771850586,Left
3116.10400390625,22808,1,1749.0,1754.0,1787.0,1835.0,1641.0,2615.0,1964.0,2090.0,137.0763702392578,-55.10858917236328,-19.68581771850586,Left
3118.10400390625,22808,1,1751.0,1762.0,1845.0,1733.0,1657.0,1732.0,1868.0,2397.0,137.0763702392578,-55.10858917236328,-19.68581771850586,Left
3120.10400390625,22808,1,1765.0,1763.0,2004.0,1897.0,1749.0,0.0,1755.0,2445.0,137.0763702392578,-55.10858917236328,-19.68581771850586,Left
3112.64697265625,22809,1,1758.0,1752.0,1871.0,1823.0,1645.0,0.0,1798.0,2381.0,137.0763702392578,-55.10858917236328,-19.68581771850586,Left
3114.64697265625,22809,1,1752.0,1737.0,1689.0,1801.0,1682.0,251.0,1787.0,2159.0,137.0763702392578,-55.10858917236328,-19.68581771850586,Left
3116.64697265625,22809,1,1759.0,1757.0,1743.0,1757.0,1707.0,1085.0,1811.0,2099.0,137.0763702392578,-55.10858917236328,-19.68581771850586,Left
3118.64697265625,22809,1,1764.0,1757.0,1695.0,1877.0,1677.0,1896.0,1835.0,1896.0,137.0763702392578,-55.10858917236328,-19.68581771850586,Left
3120.64697265625,22809,1,1749.0,1757.0,1382.0,1862.0,1711.0,3812.0,2010.0,1811.0,137.0763702392578,-55.10858917236328,-19.68581771850586,Left
3113.23876953125,22810,1,1757.0,1757.0,1639.0,1689.0,1813.0,3819.0,2055.0,1765.0,137.0763702392578,-55.10858917236328,-19.68581771850586,Left
3115.23876953125,22810,1,1765.0,1759.0,1811.0,1887.0,1717.0,3784.0,1989.0,1766.0,137.0763702392578,-55.10858917236328,-19.68581771850586,Left
3117.23876953125,22810,1,1764.0,1755.0,1812.0,1707.0,1646.0,2782.0,1929.0,1663.0,137.0763702392578,-55.10858917236328,-19.68581771850586,Left
3119.23876953125,22810,1,1767.0,1757.0,1853.0,1851.0,1671.0,1811.0,1821.0,1579.0,137.0763702392578,-55.10858917236328,-19.68581771850586,Left
3121.23876953125,22810,1,1771.0,1759.0,2085.0,1774.0,1843.0,0.0,1637.0,1707.0,137.0763702392578,-55.10858917236328,-19.68581771850586,Left
3120.30810546875,22811,1,2031.0,1761.0,1949.0,1589.0,1685.0,0.0,1725.0,1646.0,137.0763702392578,-55.10858917236328,-19.68581771850586,Left
3122.30810546875,22811,1,1749.0,1758.0,1727.0,1827.0,1687.0,410.0,1746.0,1709.0,137.34307861328125,-55.11432647705078,-20.056476593017578,Left
3124.30810546875,22811,1,1742.0,1755.0,1607.0,1716.0,1801.0,1648.0,1848.0,1574.0,137.34307861328125,-55.11432647705078,-20.056476593017578,Left
3126.30810546875,22811,1,1756.0,1751.0,1650.0,1875.0,1587.0,2031.0,2020.0,1725.0,137.34307861328125,-55.11432647705078,-20.056476593017578,Left
3128.30810546875,22811,1,1742.0,1743.0,1553.0,1839.0,1547.0,3785.0,2095.0,1459.0,137.34307861328125,-55.11432647705078,-20.056476593017578,Left
3120.73388671875,22812,1,1741.0,1741.0,1631.0,1707.0,1769.0,3823.0,2021.0,1382.0,137.34307861328125,-55.11432647705078,-20.056476593017578,Left
3122.73388671875,22812,1,1756.0,1745.0,1748.0,1855.0,1691.0,3735.0,1991.0,1554.0,137.34307861328125,-55.11432647705078,-20.056476593017578,Left
3124.73388671875,22812,1,1747.0,1755.0,1821.0,1763.0,1797.0,3303.0,1892.0,1955.0,137.34307861328125,-55.11432647705078,-20.056476593017578,Left
3126.73388671875,22812,1,1751.0,1762.0,1757.0,1919.0,1757.0,1598.0,1836.0,1965.0,137.34307861328125,-55.11432647705078,-20.056476593017578,Left
3128.73388671875,22812,1,1763.0,1773.0,2019.0,1947.0,1701.0,0.0,1646.0,1979.0,137.34307861328125,-55.11432647705078,-20.056476593017578,Left
3145.94384765625,22813,1,1755.0,1701.0,1741.0,1367.0,1965.0,0.0,1647.0,1997.0,137.34307861328125,-55.11432647705078,-20.056476593017578,Left
3147.94384765625,22813,1,1811.0,1736.0,1804.0,1956.0,1645.0,187.0,1723.0,1739.0,137.34307861328125,-55.11432647705078,-20.056476593017578,Left
3149.94384765625,22813,1,1745.0,1753.0,1753.0,1734.0,1662.0,1108.0,1711.0,1625.0,137.34307861328125,-55.11432647705078,-20.056476593017578,Left
3151.94384765625,22813,1,1747.0,1752.0,1652.0,2052.0,1671.0,1973.0,1786.0,1527.0,137.34307861328125,-55.11432647705078,-20.056476593017578,Left
3153.94384765625,22813,1,1749.0,1755.0,1532.0,1637.0,1693.0,3799.0,1944.0,1414.0,137.34307861328125,-55.11432647705078,-20.056476593017578,Left
3207.972900390625,22814,1,1755.0,1755.0,1596.0,1663.0,1737.0,3821.0,1946.0,1333.0,137.34307861328125,-55.11432647705078,-20.056476593017578,Left
3209.972900390625,22814,1,1742.0,1741.0,1783.0,1925.0,1791.0,3285.0,1931.0,1403.0,137.34307861328125,-55.11432647705078,-20.056476593017578,Left
3211.972900390625,22814,1,1811.0,1743.0,1792.0,1788.0,1894.0,1659.0,1989.0,1734.0,137.34307861328125,-55.11432647705078,-20.056476593017578,Left
3213.972900390625,22814,1,1727.0,1763.0,1873.0,1837.0,1711.0,1257.0,1917.0,1763.0,137.34307861328125,-55.11432647705078,-20.056476593017578,Left
3215.972900390625,22814,1,1745.0,1855.0,1931.0,1653.0,1709.0,0.0,1694.0,1695.0,137.34307861328125,-55.11432647705078,-20.056476593017578,Left
3209.0439453125,22815,1,1727.0,1741.0,1883.0,1727.0,1694.0,0.0,1735.0,1707.0,137.34307861328125,-55.11432647705078,-20.056476593017578,Left
3211.0439453125,22815,1,1742.0,1741.0,1755.0,2158.0,1710.0,30.0,1727.0,1575.0,137.34307861328125,-55.11432647705078,-20.056476593017578,Left
3213.0439453125,22815,1,1735.0,1741.0,1659.0,1629.0,1579.0,855.0,1787.0,1660.0,137.34307861328125,-55.11432647705078,-20.056476593017578,Left
3215.0439453125,22815,1,1743.0,1755.0,1642.0,1716.0,1849.0,1944.0,1938.0,1821.0,137.34307861328125,-55.11432647705078,-20.056476593017578,Left
3217.0439453125,22815,1,1797.0,1709.0,1447.0,2010.0,1851.0,3965.0,2087.0,1955.0,137.34307861328125,-55.11432647705078,-20.056476593017578,Left
3238.327880859375,22816,1,1977.0,1740.0,1723.0,1765.0,1721.0,3342.0,2143.0,1684.0,137.34307861328125,-55.11432647705078,-20.056476593017578,Left
3240.327880859375,22816,1,1725.0,1755.0,1788.0,1739.0,1684.0,2751.0,1955.0,1658.0,137.34307861328125,-55.11432647705078,-20.056476593017578,Left
3242.327880859375,22816,1,1740.0,1745.0,1853.0,1768.0,1636.0,2103.0,1931.0,1997.0,137.34307861328125,-55.11432647705078,-20.056476593017578,Left
3244.327880859375,22816,1,1739.0,1755.0,1849.0,1723.0,1815.0,1209.0,1789.0,1948.0,137.34307861328125,-55.11432647705078,-20.056476593017578,Left
3246.327880859375,22816,1,1747.0,1861.0,1903.0,1703.0,1694.0,0.0,1597.0,2131.0,137.34307861328125,-55.11432647705078,-20.056476593017578,Left
3239.690185546875,22817,1,1736.0,1747.0,1895.0,1863.0,1700.0,0.0,1589.0,1971.0,137.34307861328125,-55.11432647705078,-20.056476593017578,Left
3241.690185546875,22817,1,1746.0,1755.0,1781.0,1820.0,1695.0,411.0,1611.0,1909.0,137.34307861328125,-55.11432647705078,-20.056476593017578,Left
3243.690185546875,22817,1,1747.0,1753.0,1704.0,1747.0,1738.0,1382.0,1597.0,1950.0,137.34307861328125,-55.11432647705078,-20.056476593017578,Left
3245.690185546875,22817,1,1753.0,1756.0,1645.0,1925.0,1693.0,2316.0,1753.0,1655.0,137.35140991210938,-55.0494384765625,-20.206369400024414,Left
3247.690185546875,22817,1,1750.0,1753.0,1428.0,1955.0,1817.0,3782.0,1928.0,1657.0,137.35140991210938,-55.0494384765625,-20.206369400024414,Left
3240.546875,22818,1,1755.0,1758.0,1627.0,1618.0,1721.0,3787.0,1961.0,1691.0,137.35140991210938,-55.0494384765625,-20.206369400024414,Left
3242.546875,22818,1,1739.0,1749.0,1847.0,1595.0,1847.0,3118.0,1914.0,1349.0,137.35140991210938,-55.0494384765625,-20.206369400024414,Left
3244.546875,22818,1,1775.0,1753.0,1965.0,1801.0,1720.0,2385.0,1997.0,1827.0,137.35140991210938,-55.0494384765625,-20.206369400024414,Left
3246.546875,22818,1,1709.0,1743.0,1878.0,1805.0,1654.0,1053.0,1847.0,1723.0,137.35140991210938,-55.0494384765625,-20.206369400024414,Left
3248.546875,22818,1,1721.0,1941.0,2023.0,1815.0,1635.0,0.0,1675.0,1896.0,137.35140991210938,-55.0494384765625,-20.206369400024414,Left
3241.06884765625,22819,1,1733.0,1740.0,1975.0,1813.0,1678.0,0.0,1705.0,2069.0,137.35140991210938,-55.0494384765625,-20.206369400024414,Left
3243.06884765625,22819,1,1721.0,1743.0,1767.0,1813.0,1755.0,665.0,1717.0,2095.0,137.35140991210938,-55.0494384765625,-20.206369400024414,Left
3245.06884765625,22819,1,1739.0,1733.0,1608.0,1800.0,1709.0,997.0,1859.0,1427.0,137.35140991210938,-55.0494384765625,-20.206369400024414,Left
3247.06884765625,22819,1,1733.0,1748.0,1515.0,1875.0,1722.0,2089.0,1811.0,1735.0,137.35140991210938,-55.0494384765625,-20.206369400024414,Left
3249.06884765625,22819,1,1727.0,1749.0,1559.0,1991.0,1701.0,3819.0,1892.0,1614.0,137.35140991210938,-55.0494384765625,-20.206369400024414,Left
3241.672119140625,22820,1,1740.0,1749.0,1651.0,1157.0,1723.0,3803.0,1757.0,1817.0,137.35140991210938,-55.0494384765625,-20.206369400024414,Left
3243.672119140625,22820,1,1727.0,1755.0,1733.0,1974.0,1781.0,3389.0,1719.0,1807.0,137.35140991210938,-55.0494384765625,-20.206369400024414,Left
3245.672119140625,22820,1,1749.0,1751.0,1833.0,1960.0,1691.0,2583.0,1743.0,1867.0,137.35140991210938,-55.0494384765625,-20.206369400024414,Left
3247.672119140625,22820,1,1749.0,1756.0,1955.0,1591.0,1848.0,1523.0,1630.0,1945.0,137.35140991210938,-55.0494384765625,-20.206369400024414,Left
3249.672119140625,22820,1,1765.0,1981.0,2095.0,1909.0,1734.0,0.0,1461.0,2080.0,137.35140991210938,-55.0494384765625,-20.206369400024414,Left
3242.239013671875,22821,1,1763.0,1717.0,1933.0,1810.0,1707.0,0.0,1510.0,2111.0,137.35140991210938,-55.0494384765625,-20.206369400024414,Left
3244.239013671875,22821,1,1751.0,1725.0,1721.0,1855.0,1743.0,661.0,1621.0,1894.0,137.35140991210938,-55.0494384765625,-20.206369400024414,Left
3246.239013671875,22821,1,1755.0,1734.0,1610.0,1709.0,1750.0,1483.0,1712.0,1851.0,137.35140991210938,-55.0494384765625,-20.206369400024414,Left
3248.239013671875,22821,1,1758.0,1727.0,1639.0,1754.0,1722.0,2620.0,1877.0,1769.0,137.35140991210938,-55.0494384765625,-20.206369400024414,Left
3250.239013671875,22821,1,1753.0,1743.0,1469.0,1849.0,1687.0,3815.0,1991.0,1683.0,137.35140991210938,-55.0494384765625,-20.206369400024414,Left
3242.72119140625,22822,1,1747.0,1753.0,1608.0,1736.0,1741.0,3821.0,2021.0,1785.0,137.35140991210938,-55.0494384765625,-20.206369400024414,Left
3244.72119140625,22822,1,1757.0,1751.0,1727.0,1879.0,1753.0,3815.0,1984.0,1983.0,137.35140991210938,-55.0494384765625,-20.206369400024414,Left
3246.72119140625,22822,1,1765.0,1748.0,1836.0,1734.0,1688.0,2794.0,1939.0,2092.0,137.35140991210938,-55.0494384765625,-20.206369400024414,Left
3248.72119140625,22822,1,1757.0,1750.0,1915.0,1755.0,1704.0,1543.0,1903.0,2206.0,137.35140991210938,-55.0494384765625,-20.206369400024414,Left
3250.72119140625,22822,1,1763.0,1997.0,2077.0,1699.0,1735.0,0.0,1783.0,2139.0,137.35140991210938,-55.0494384765625,-20.206369400024414,Left
3243.245849609375,22823,1,1751.0,1723.0,1831.0,1863.0,1673.0,0.0,1693.0,2147.0,137.35140991210938,-55.0494384765625,-20.206369400024414,Left
3245.245849609375,22823,1,1749.0,1727.0,1737.0,1897.0,1693.0,638.0,1644.0,2073.0,137.35140991210938,-55.0494384765625,-20.206369400024414,Left
3247.245849609375,22823,1,1749.0,1739.0,1557.0,1548.0,1773.0,1599.0,1720.0,1735.0,137.35140991210938,-55.0494384765625,-20.206369400024414,Left
3249.245849609375,22823,1,1749.0,1727.0,1745.0,1846.0,1709.0,2659.0,1823.0,1685.0,137.35140991210938,-55.0494384765625,-20.206369400024414,Left
3251.245849609375,22823,1,1747.0,1748.0,1609.0,1912.0,1743.0,3813.0,1949.0,1444.0,137.35140991210938,-55.0494384765625,-20.206369400024414,Left
3243.6240234375,22824,1,1757.0,1750.0,1708.0,1779.0,1779.0,3813.0,2003.0,1436.0,137.4363250732422,-54.94688415527344,-20.368967056274414,Left
3245.6240234375,22824,1,1757.0,1759.0,1351.0,1561.0,1875.0,3611.0,2032.0,1685.0,137.4363250732422,-54.94688415527344,-20.368967056274414,Left
3247.6240234375,22824,1,1752.0,1755.0,1768.0,1769.0,1701.0,2552.0,1935.0,1614.0,137.4363250732422,-54.94688415527344,-20.368967056274414,Left
3249.6240234375,22824,1,1765.0,1741.0,2017.0,1839.0,1851.0,1115.0,1870.0,1619.0,137.4363250732422,-54.94688415527344,-20.368967056274414,Left
3251.6240234375,22824,1,1779.0,2138.0,2109.0,1659.0,1525.0,0.0,1819.0,1736.0,137.4363250732422,-54.94688415527344,-20.368967056274414,Left
3253.10498046875,22825,1,1737.0,1657.0,1786.0,1801.0,1655.0,0.0,1695.0,1147.0,137.4363250732422,-54.94688415527344,-20.368967056274414,Left
3255.10498046875,22825,1,1726.0,1669.0,1708.0,1845.0,1727.0,0.0,1761.0,1658.0,137.4363250732422,-54.94688415527344,-20.368967056274414,Left
3257.10498046875,22825,1,1726.0,1715.0,1650.0,1890.0,1699.0,941.0,1756.0,1557.0,137.4363250732422,-54.94688415527344,-20.368967056274414,Left
3259.10498046875,22825,1,1737.0,1724.0,1609.0,1709.0,1717.0,2250.0,1790.0,1519.0,137.4363250732422,-54.94688415527344,-20.368967056274414,Left
3261.10498046875,22825,1,1725.0,1717.0,1553.0,1749.0,1705.0,3799.0,1941.0,1271.0,137.4363250732422,-54.94688415527344,-20.368967056274414,Left
3331.52001953125,22826,1,1740.0,1743.0,1639.0,1671.0,1721.0,3787.0,2004.0,1187.0,137.4363250732422,-54.94688415527344,-20.368967056274414,Left
3333.52001953125,22826,1,1947.0,1740.0,1833.0,1895.0,1695.0,3495.0,2029.0,1763.0,137.4363250732422,-54.94688415527344,-20.368967056274414,Left
3335.52001953125,22826,1,1735.0,1745.0,1865.0,1661.0,1724.0,2133.0,1971.0,1581.0,137.4363250732422,-54.94688415527344,-20.368967056274414,Left
3337.52001953125,22826,1,1741.0,1748.0,1899.0,1828.0,1727.0,959.0,1819.0,1693.0,137.4363250732422,-54.94688415527344,-20.368967056274414,Left
3339.52001953125,22826,1,1747.0,1895.0,2087.0,1814.0,1771.0,0.0,1612.0,2058.0,137.4363250732422,-54.94688415527344,-20.368967056274414,Left
3332.30029296875,22827,1,1736.0,1715.0,1824.0,1823.0,1770.0,0.0,1583.0,1948.0,137.4363250732422,-54.94688415527344,-20.368967056274414,Left
3334.30029296875,22827,1,1753.0,1725.0,1735.0,1804.0,1739.0,447.0,1647.0,1993.0,137.4363250732422,-54.94688415527344,-20.368967056274414,Left
3336.30029296875,22827,1,1741.0,1747.0,1661.0,1779.0,1765.0,1251.0,1701.0,1975.0,137.4363250732422,-54.94688415527344,-20.368967056274414,Left
3338.30029296875,22827,1,1751.0,1735.0,1556.0,1757.0,1715.0,2488.0,1811.0,1823.0,137.4363250732422,-54.94688415527344,-20.368967056274414,Left
3340.30029296875,22827,1,1756.0,1743.0,1436.0,1802.0,1736.0,3813.0,1959.0,1867.0,137.4363250732422,-54.94688415527344,-20.368967056274414,Left
3332.801025390625,22828,1,1753.0,1767.0,1662.0,1769.0,1701.0,3789.0,1927.0,1927.0,137.4363250732422,-54.94688415527344,-20.368967056274414,Left
3334.801025390625,22828,1,1757.0,1758.0,1817.0,1737.0,1747.0,3287.0,1895.0,1740.0,137.4363250732422,-54.94688415527344,-20.368967056274414,Left
3336.801025390625,22828,1,1759.0,1752.0,1897.0,1708.0,1755.0,2532.0,1831.0,1765.0,137.4363250732422,-54.94688415527344,-20.368967056274414,Left
3338.801025390625,22828,1,1763.0,1742.0,1861.0,1636.0,1717.0,1145.0,1751.0,1735.0,137.4363250732422,-54.94688415527344,-20.368967056274414,Left
3340.801025390625,22828,1,1892.0,2199.0,2019.0,1940.0,2057.0,28.0,1767.0,2165.0,137.4363250732422,-54.94688415527344,-20.368967056274414,Left
3333.4580078125,22829,1,1740.0,1707.0,1863.0,1819.0,1596.0,0.0,1787.0,1831.0,137.4363250732422,-54.94688415527344,-20.368967056274414,Left
3335.4580078125,22829,1,1727.0,1717.0,1689.0,1943.0,1703.0,280.0,1778.0,1767.0,137.4363250732422,-54.94688415527344,-20.368967056274414,Left
3337.4580078125,22829,1,1727.0,1727.0,1593.0,1651.0,1711.0,1165.0,1790.0,1399.0,137.4363250732422,-54.94688415527344,-20.368967056274414,Left
3339.4580078125,22829,1,1723.0,1735.0,1561.0,1949.0,1668.0,2923.0,1939.0,1708.0,137.4363250732422,-54.94688415527344,-20.368967056274414,Left
3341.4580078125,22829,1,1687.0,1701.0,1399.0,1671.0,1799.0,3768.0,2067.0,1561.0,137.4363250732422,-54.94688415527344,-20.368967056274414,Left
3333.742919921875,22830,1,1712.0,1739.0,1659.0,1951.0,1763.0,3805.0,1997.0,1772.0,137.4363250732422,-54.94688415527344,-20.368967056274414,Left
3335.742919921875,22830,1,1739.0,1741.0,1809.0,1604.0,1743.0,3055.0,1880.0,1501.0,137.4363250732422,-54.94688415527344,-20.368967056274414,Left
3337.742919921875,22830,1,1739.0,1736.0,1895.0,1635.0,1687.0,2286.0,1861.0,1619.0,137.4363250732422,-54.94688415527344,-20.368967056274414,Left
3339.742919921875,22830,1,1750.0,1748.0,1925.0,1682.0,1709.0,1007.0,1721.0,1736.0,137.7653045654297,-54.881038665771484,-20.566408157348633,Left
3341.742919921875,22830,1,1756.0,2034.0,2123.0,1791.0,1716.0,0.0,1577.0,1763.0,137.7653045654297,-54.881038665771484,-20.566408157348633,Left
3334.009033203125,22831,1,1753.0,1715.0,1847.0,1776.0,1771.0,0.0,1523.0,1815.0,137.7653045654297,-54.881038665771484,-20.566408157348633,Left
3336.009033203125,22831,1,1754.0,1707.0,1657.0,2038.0,1705.0,700.0,1653.0,1740.0,137.7653045654297,-54.881038665771484,-20.566408157348633,Left
3338.009033203125,22831,1,1751.0,1726.0,1625.0,1843.0,1719.0,1563.0,1715.0,1639.0,137.7653045654297,-54.881038665771484,-20.566408157348633,Left
3340.009033203125,22831,1,1752.0,1727.0,1531.0,1781.0,1390.0,2751.0,1875.0,1624.0,137.7653045654297,-54.881038665771484,-20.566408157348633,Left
3342.009033203125,22831,1,1722.0,1703.0,1399.0,1823.0,2163.0,3783.0,2076.0,1771.0,137.7653045654297,-54.881038665771484,-20.566408157348633,Left
3334.252197265625,22832,1,1738.0,1747.0,1695.0,1575.0,1835.0,3811.0,2043.0,1881.0,137.7653045654297,-54.881038665771484,-20.566408157348633,Left
3336.252197265625,22832,1,1756.0,1751.0,1836.0,1868.0,1851.0,2769.0,1925.0,1875.0,137.7653045654297,-54.881038665771484,-20.566408157348633,Left
3338.252197265625,22832,1,1755.0,1755.0,1877.0,1798.0,1820.0,2067.0,1863.0,1824.0,137.7653045654297,-54.881038665771484,-20.566408157348633,Left
3340.252197265625,22832,1,1747.0,1751.0,1865.0,1757.0,1785.0,640.0,1766.0,1915.0,137.7653045654297,-54.881038665771484,-20.566408157348633,Left
3342.252197265625,22832,1,1759.0,2309.0,2021.0,1727.0,1720.0,0.0,1647.0,1830.0,137.7653045654297,-54.881038665771484,-20.566408157348633,Left
3334.511962890625,22833,1,1759.0,1647.0,1877.0,1489.0,1769.0,0.0,1561.0,1951.0,137.7653045654297,-54.881038665771484,-20.566408157348633,Left
3336.511962890625,22833,1,1763.0,1669.0,1707.0,1901.0,1708.0,523.0,1626.0,1879.0,137.7653045654297,-54.881038665771484,-20.566408157348633,Left
3338.511962890625,22833,1,1748.0,1675.0,1581.0,1837.0,1749.0,1366.0,1637.0,1625.0,137.7653045654297,-54.881038665771484,-20.566408157348633,Left
3340.511962890625,22833,1,1764.0,1688.0,1562.0,1867.0,1755.0,2799.0,1756.0,1543.0,137.7653045654297,-54.881038665771484,-20.566408157348633,Left
3342.511962890625,22833,1,1758.0,1708.0,1512.0,1684.0,1711.0,3815.0,1957.0,1385.0,137.7653045654297,-54.881038665771484,-20.566408157348633,Left
3346.44580078125,22834,1,1782.0,1695.0,1575.0,1983.0,2311.0,3944.0,2123.0,1459.0,137.7653045654297,-54.881038665771484,-20.566408157348633,Left
3348.44580078125,22834,1,1711.0,1693.0,1785.0,1671.0,1565.0,2611.0,2147.0,1243.0,137.7653045654297,-54.881038665771484,-20.566408157348633,Left
3350.44580078125,22834,1,1891.0,1739.0,1879.0,1485.0,1583.0,1887.0,2001.0,1501.0,137.7653045654297,-54.881038665771484,-20.566408157348633,Left
3352.44580078125,22834,1,1735.0,1745.0,1976.0,1975.0,1675.0,525.0,1837.0,1471.0,137.7653045654297,-54.881038665771484,-20.566408157348633,Left
3354.44580078125,22834,1,1747.0,1997.0,2103.0,1867.0,1676.0,0.0,1644.0,1708.0,137.7653045654297,-54.881038665771484,-20.566408157348633,Left
3433.150146484375,22835,1,1749.0,1714.0,1799.0,1703.0,1674.0,10.0,1592.0,1781.0,137.7653045654297,-54.881038665771484,-20.566408157348633,Left
3435.150146484375,22835,1,1752.0,1723.0,1639.0,1880.0,1809.0,0.0,1687.0,1773.0,137.7653045654297,-54.881038665771484,-20.566408157348633,Left
3437.150146484375,22835,1,1735.0,1717.0,1654.0,1991.0,1746.0,1208.0,1737.0,1977.0,137.7653045654297,-54.881038665771484,-20.566408157348633,Left
3439.150146484375,22835,1,1739.0,1721.0,1587.0,1755.0,1723.0,2905.0,1800.0,2021.0,137.7653045654297,-54.881038665771484,-20.566408157348633,Left
3441.150146484375,22835,1,1739.0,1740.0,1483.0,1741.0,1748.0,3813.0,1883.0,1869.0,137.7653045654297,-54.881038665771484,-20.566408157348633,Left
3433.673095703125,22836,1,1749.0,1747.0,1668.0,1809.0,1772.0,3811.0,1853.0,1835.0,137.7653045654297,-54.881038665771484,-20.566408157348633,Left
3435.673095703125,22836,1,1747.0,1735.0,1783.0,1843.0,1723.0,3112.0,1837.0,1983.0,137.7653045654297,-54.881038665771484,-20.566408157348633,Left
3437.673095703125,22836,1,1775.0,1763.0,1836.0,1507.0,1694.0,2262.0,1875.0,1879.0,137.7653045654297,-54.881038665771484,-20.566408157348633,Left
3439.673095703125,22836,1,1747.0,1752.0,1961.0,1854.0,1763.0,811.0,1750.0,1945.0,137.7653045654297,-54.881038665771484,-20.566408157348633,Left
3441.673095703125,22836,1,1737.0,2251.0,2133.0,1807.0,1717.0,0.0,1658.0,1941.0,137.7653045654297,-54.881038665771484,-20.566408157348633,Left
3435.890869140625,22837,1,1755.0,1659.0,1895.0,1749.0,1684.0,0.0,1694.0,1704.0,137.7653045654297,-54.881038665771484,-20.566408157348633,Left
3437.890869140625,22837,1,1747.0,1689.0,1719.0,1706.0,1750.0,799.0,1801.0,1765.0,138.5252227783203,-54.99297332763672,-21.093050003051758,Left
3439.890869140625,22837,1,1754.0,1703.0,1611.0,2090.0,1827.0,1595.0,1939.0,1785.0,138.5252227783203,-54.99297332763672,-21.093050003051758,Left
3441.890869140625,22837,1,1747.0,2509.0,1422.0,3823.0,1707.0,3077.0,2086.0,1629.0,138.5252227783203,-54.99297332763672,-21.093050003051758,Left
3443.890869140625,22837,1,1756.0,1549.0,1447.0,3803.0,1763.0,3784.0,2203.0,1750.0,138.5252227783203,-54.99297332763672,-21.093050003051758,Left
3436.2158203125,22838,1,1759.0,1609.0,1627.0,3813.0,1727.0,3816.0,2157.0,1784.0,138.5252227783203,-54.99297332763672,-21.093050003051758,Left
3438.2158203125,22838,1,1763.0,1631.0,1838.0,3819.0,1813.0,3239.0,2105.0,1612.0,138.5252227783203,-54.99297332763672,-21.093050003051758,Left
3440.2158203125,22838,1,1757.0,1613.0,1896.0,3793.0,1887.0,2405.0,2139.0,1786.0,138.5252227783203,-54.99297332763672,-21.093050003051758,Left
3442.2158203125,22838,1,1751.0,1681.0,2003.0,3817.0,1735.0,861.0,1939.0,1955.0,138.5252227783203,-54.99297332763672,-21.093050003051758,Left
3444.2158203125,22838,1,1749.0,2255.0,1947.0,3815.0,1735.0,0.0,1835.0,1855.0,138.5252227783203,-54.99297332763672,-21.093050003051758,Left
3436.451904296875,22839,1,1746.0,1591.0,1837.0,3819.0,1707.0,189.0,1810.0,1995.0,138.5252227783203,-54.99297332763672,-21.093050003051758,Left
3438.451904296875,22839,1,1753.0,1595.0,1662.0,3993.0,1894.0,216.0,1852.0,2191.0,138.5252227783203,-54.99297332763672,-21.093050003051758,Left
3440.451904296875,22839,1,1747.0,1631.0,1635.0,3833.0,1679.0,1524.0,1791.0,1885.0,138.5252227783203,-54.99297332763672,-21.093050003051758,Left
3442.451904296875,22839,1,1749.0,1655.0,1591.0,3800.0,1828.0,3131.0,1951.0,1683.0,138.5252227783203,-54.99297332763672,-21.093050003051758,Left
3444.451904296875,22839,1,1753.0,1687.0,1420.0,3927.0,1739.0,3817.0,2043.0,1449.0,138.5252227783203,-54.99297332763672,-21.093050003051758,Left
3436.68310546875,22840,1,1736.0,1677.0,1661.0,3819.0,1930.0,3419.0,2101.0,1759.0,138.5252227783203,-54.99297332763672,-21.093050003051758,Left
3438.68310546875,22840,1,1736.0,1696.0,1836.0,3827.0,1685.0,2893.0,2057.0,1745.0,138.5252227783203,-54.99297332763672,-21.093050003051758,Left
3440.68310546875,22840,1,1742.0,1721.0,1885.0,3452.0,1720.0,2169.0,1901.0,1147.0,138.5252227783203,-54.99297332763672,-21.093050003051758,Left
3442.68310546875,22840,1,1733.0,1747.0,1977.0,3053.0,1660.0,431.0,1752.0,1703.0,138.5252227783203,-54.99297332763672,-21.093050003051758,Left
3444.68310546875,22840,1,1747.0,2355.0,2039.0,2821.0,1657.0,0.0,1627.0,1885.0,138.5252227783203,-54.99297332763672,-21.093050003051758,Left
3437.10595703125,22841,1,1752.0,1599.0,1863.0,2605.0,1659.0,0.0,1682.0,1933.0,138.5252227783203,-54.99297332763672,-21.093050003051758,Left
3439.10595703125,22841,1,1737.0,1625.0,1763.0,2457.0,1669.0,623.0,1692.0,1773.0,138.5252227783203,-54.99297332763672,-21.093050003051758,Left
3441.10595703125,22841,1,1753.0,1651.0,1623.0,2311.0,1792.0,1486.0,1688.0,1821.0,138.5252227783203,-54.99297332763672,-21.093050003051758,Left
3443.10595703125,22841,1,1755.0,1671.0,1407.0,2212.0,1685.0,3017.0,1788.0,1737.0,138.5252227783203,-54.99297332763672,-21.093050003051758,Left
3445.10595703125,22841,1,1757.0,1689.0,1421.0,2142.0,1779.0,3821.0,1883.0,1598.0,138.5252227783203,-54.99297332763672,-21.093050003051758,Left
3437.37109375,22842,1,1757.0,1691.0,1607.0,2065.0,1785.0,3816.0,1833.0,1637.0,138.5252227783203,-54.99297332763672,-21.093050003051758,Left
3439.37109375,22842,1,1757.0,1719.0,1903.0,2019.0,1781.0,2927.0,1776.0,1759.0,138.5252227783203,-54.99297332763672,-21.093050003051758,Left
3441.37109375,22842,1,1764.0,1725.0,1911.0,1974.0,1723.0,2181.0,1767.0,1842.0,138.5252227783203,-54.99297332763672,-21.093050003051758,Left
3443.37109375,22842,1,1763.0,1714.0,1996.0,1935.0,1739.0,444.0,1689.0,1843.0,138.5252227783203,-54.99297332763672,-21.093050003051758,Left
3445.37109375,22842,1,1753.0,2228.0,2008.0,1907.0,1591.0,0.0,1618.0,1791.0,138.5252227783203,-54.99297332763672,-21.093050003051758,Left
3437.6201171875,22843,1,1763.0,1646.0,1845.0,1881.0,1716.0,0.0,1611.0,1691.0,138.5252227783203,-54.99297332763672,-21.093050003051758,Left
3439.6201171875,22843,1,1764.0,1663.0,1707.0,1861.0,1983.0,636.0,1657.0,1659.0,138.5252227783203,-54.99297332763672,-21.093050003051758,Left
3441.6201171875,22843,1,1763.0,1686.0,1631.0,1839.0,1653.0,1448.0,1755.0,1908.0,138.5252227783203,-54.99297332763672,-21.093050003051758,Left
3443.6201171875,22843,1,1765.0,1686.0,1533.0,1831.0,1737.0,3089.0,1915.0,1737.0,138.87387084960938,-55.332149505615234,-21.677499771118164,Left
3445.6201171875,22843,1,1763.0,1715.0,1469.0,1821.0,1767.0,3797.0,1993.0,1653.0,138.87387084960938,-55.332149505615234,-21.677499771118164,Left
3441.02197265625,22844,1,1748.0,1677.0,1604.0,1779.0,2181.0,2855.0,2087.0,1891.0,138.87387084960938,-55.332149505615234,-21.677499771118164,Left
3443.02197265625,22844,1,1753.0,1687.0,1849.0,1786.0,2409.0,2458.0,2117.0,1962.0,138.87387084960938,-55.332149505615234,-21.677499771118164,Left
3445.02197265625,22844,1,1784.0,1727.0,1786.0,1800.0,1356.0,1805.0,2069.0,1996.0,138.87387084960938,-55.332149505615234,-21.677499771118164,Left
3447.02197265625,22844,1,1751.0,1739.0,1991.0,1775.0,1574.0,215.0,1911.0,2085.0,138.87387084960938,-55.332149505615234,-21.677499771118164,Left
3449.02197265625,22844,1,1757.0,2074.0,2027.0,1791.0,1572.0,0.0,1717.0,2173.0,138.87387084960938,-55.332149505615234,-21.677499771118164,Left
3451.69287109375,22845,1,1746.0,1672.0,1801.0,1786.0,1679.0,0.0,1652.0,1753.0,138.87387084960938,-55.332149505615234,-21.677499771118164,Left
3453.69287109375,22845,1,1821.0,1675.0,1661.0,1752.0,1735.0,719.0,1725.0,2103.0,138.87387084960938,-55.332149505615234,-21.677499771118164,Left
3455.69287109375,22845,1,1741.0,1690.0,1764.0,1771.0,1740.0,1152.0,1720.0,1889.0,138.87387084960938,-55.332149505615234,-21.677499771118164,Left
3457.69287109375,22845,1,1725.0,1700.0,1615.0,1764.0,1753.0,2854.0,1909.0,1851.0,138.87387084960938,-55.332149505615234,-21.677499771118164,Left
3459.69287109375,22845,1,1747.0,1721.0,1581.0,1779.0,1679.0,3803.0,2065.0,1701.0,138.87387084960938,-55.332149505615234,-21.677499771118164,Left
3504.16015625,22846,1,1737.0,1714.0,1427.0,1781.0,1694.0,3803.0,2009.0,1245.0,138.87387084960938,-55.332149505615234,-21.677499771118164,Left
3506.16015625,22846,1,1805.0,1727.0,1707.0,1767.0,1819.0,2071.0,2066.0,1691.0,138.87387084960938,-55.332149505615234,-21.677499771118164,Left
3508.16015625,22846,1,1727.0,1747.0,1991.0,1763.0,1848.0,1833.0,2007.0,1768.0,138.87387084960938,-55.332149505615234,-21.677499771118164,Left
3510.16015625,22846,1,1740.0,1823.0,2191.0,1781.0,1701.0,62.0,1687.0,1879.0,138.87387084960938,-55.332149505615234,-21.677499771118164,Left
3512.16015625,22846,1,1749.0,2149.0,2069.0,1771.0,1765.0,0.0,1593.0,1958.0,138.87387084960938,-55.332149505615234,-21.677499771118164,Left
3504.88720703125,22847,1,1747.0,1661.0,1839.0,1772.0,1699.0,0.0,1661.0,1779.0,138.87387084960938,-55.332149505615234,-21.677499771118164,Left
3506.88720703125,22847,1,1751.0,1685.0,1735.0,1767.0,1682.0,636.0,1711.0,1657.0,138.87387084960938,-55.332149505615234,-21.677499771118164,Left
3508.88720703125,22847,1,1755.0,1695.0,1663.0,1775.0,1837.0,1398.0,1819.0,1507.0,138.87387084960938,-55.332149505615234,-21.677499771118164,Left
3510.88720703125,22847,1,1751.0,1705.0,1543.0,1765.0,1722.0,3283.0,1995.0,1541.0,138.87387084960938,-55.332149505615234,-21.677499771118164,Left
3512.88720703125,22847,1,1751.0,1723.0,1544.0,1773.0,1741.0,3813.0,2059.0,1547.0,138.87387084960938,-55.332149505615234,-21.677499771118164,Left
3505.305908203125,22848,1,1754.0,1735.0,1759.0,1764.0,1775.0,3803.0,1988.0,1608.0,138.87387084960938,-55.332149505615234,-21.677499771118164,Left
3507.305908203125,22848,1,1759.0,1735.0,1851.0,1768.0,1707.0,3013.0,1917.0,1670.0,138.87387084960938,-55.332149505615234,-21.677499771118164,Left
3509.305908203125,22848,1,2024.0,1737.0,1929.0,1755.0,1743.0,2195.0,1887.0,1708.0,138.87387084960938,-55.332149505615234,-21.677499771118164,Left
3511.305908203125,22848,1,1907.0,1867.0,2007.0,1743.0,1784.0,663.0,1735.0,1553.0,138.87387084960938,-55.332149505615234,-21.677499771118164,Left
3513.305908203125,22848,1,1774.0,1999.0,1945.0,1756.0,1827.0,0.0,1759.0,1961.0,138.87387084960938,-55.332149505615234,-21.677499771118164,Left
3505.5771484375,22849,1,1700.0,1642.0,1746.0,1753.0,1769.0,293.0,1737.0,1631.0,138.87387084960938,-55.332149505615234,-21.677499771118164,Left
3507.5771484375,22849,1,1692.0,1659.0,1685.0,1769.0,1576.0,347.0,1768.0,1788.0,138.87387084960938,-55.332149505615234,-21.677499771118164,Left
3509.5771484375,22849,1,1693.0,1683.0,1716.0,1773.0,1779.0,915.0,1799.0,1671.0,138.87387084960938,-55.332149505615234,-21.677499771118164,Left
3511.5771484375,22849,1,1701.0,1705.0,1367.0,1755.0,1643.0,2894.0,1959.0,1460.0,138.87387084960938,-55.332149505615234,-21.677499771118164,Left
3513.5771484375,22849,1,1719.0,1701.0,1623.0,1763.0,1686.0,3812.0,2058.0,1617.0,138.87387084960938,-55.332149505615234,-21.677499771118164,Left
3505.966064453125,22850,1,1725.0,1725.0,1739.0,1765.0,1805.0,3619.0,1991.0,1549.0,139.31800842285156,-55.432106018066406,-22.427818298339844,Left
3507.966064453125,22850,1,1739.0,1735.0,1671.0,1767.0,1767.0,2649.0,1971.0,1641.0,139.31800842285156,-55.432106018066406,-22.427818298339844,Left
3509.966064453125,22850,1,1733.0,1723.0,1914.0,1767.0,1740.0,2131.0,1915.0,1638.0,139.31800842285156,-55.432106018066406,-22.427818298339844,Left
3511.966064453125,22850,1,1748.0,1830.0,2040.0,1765.0,1876.0,339.0,1735.0,1567.0,139.31800842285156,-55.432106018066406,-22.427818298339844,Left
3513.966064453125,22850,1,1752.0,2001.0,1960.0,1769.0,1741.0,0.0,1707.0,1563.0,139.31800842285156,-55.432106018066406,-22.427818298339844,Left
3510.357177734375,22851,1,1754.0,1684.0,1838.0,1764.0,1706.0,173.0,1709.0,1685.0,139.31800842285156,-55.432106018066406,-22.427818298339844,Left
3512.357177734375,22851,1,1961.0,1695.0,1727.0,1767.0,1799.0,969.0,1779.0,1354.0,139.31800842285156,-55.432106018066406,-22.427818298339844,Left
3514.357177734375,22851,1,1757.0,1705.0,1659.0,1763.0,1573.0,1599.0,1929.0,1643.0,139.31800842285156,-55.432106018066406,-22.427818298339844,Left
3516.357177734375,22851,1,1742.0,1715.0,1401.0,1763.0,1645.0,3425.0,2063.0,1567.0,139.31800842285156,-55.432106018066406,-22.427818298339844,Left
3518.357177734375,22851,1,1741.0,1722.0,1672.0,1763.0,1787.0,3787.0,2027.0,1445.0,139.31800842285156,-55.432106018066406,-22.427818298339844,Left
3521.261962890625,22852,1,1749.0,1749.0,1685.0,1772.0,1993.0,3635.0,2012.0,1319.0,139.31800842285156,-55.432106018066406,-22.427818298339844,Left
3523.261962890625,22852,1,1721.0,1739.0,1701.0,1765.0,1709.0,2570.0,2068.0,1630.0,139.31800842285156,-55.432106018066406,-22.427818298339844,Left
3525.261962890625,22852,1,1739.0,1743.0,1869.0,1765.0,1705.0,2079.0,2014.0,1797.0,139.31800842285156,-55.432106018066406,-22.427818298339844,Left
3527.261962890625,22852,1,1735.0,1765.0,1927.0,1769.0,1659.0,325.0,1827.0,2071.0,139.31800842285156,-55.432106018066406,-22.427818298339844,Left
3529.261962890625,22852,1,1737.0,1805.0,1993.0,1763.0,1653.0,0.0,1711.0,2281.0,139.31800842285156,-55.432106018066406,-22.427818298339844,Left
3533.179931640625,22853,1,1752.0,1669.0,1929.0,1767.0,1837.0,0.0,1725.0,1636.0,139.31800842285156,-55.432106018066406,-22.427818298339844,Left
3535.179931640625,22853,1,1746.0,1704.0,1643.0,1757.0,1783.0,875.0,1912.0,1939.0,139.31800842285156,-55.432106018066406,-22.427818298339844,Left
3537.179931640625,22853,1,1720.0,1709.0,1397.0,1765.0,1756.0,1416.0,1919.0,1654.0,139.31800842285156,-55.432106018066406,-22.427818298339844,Left
3539.179931640625,22853,1,1743.0,1735.0,1530.0,1765.0,1815.0,3503.0,1867.0,1519.0,139.31800842285156,-55.432106018066406,-22.427818298339844,Left
3541.179931640625,22853,1,1737.0,1724.0,1609.0,1748.0,1677.0,3810.0,1837.0,1576.0,139.31800842285156,-55.432106018066406,-22.427818298339844,Left
3542.738037109375,22854,1,1735.0,1746.0,1785.0,1759.0,2136.0,3607.0,1786.0,1223.0,139.31800842285156,-55.432106018066406,-22.427818298339844,Left
3544.738037109375,22854,1,1716.0,1747.0,2009.0,1735.0,1703.0,3033.0,1789.0,1805.0,139.31800842285156,-55.432106018066406,-22.427818298339844,Left
3546.738037109375,22854,1,1800.0,1747.0,1911.0,1770.0,1542.0,1719.0,1787.0,1634.0,139.31800842285156,-55.432106018066406,-22.427818298339844,Left
3548.738037109375,22854,1,1733.0,2260.0,1977.0,1767.0,1741.0,0.0,1651.0,2009.0,139.31800842285156,-55.432106018066406,-22.427818298339844,Left
3550.738037109375,22854,1,1739.0,2413.0,1833.0,1769.0,1687.0,0.0,1590.0,2125.0,139.31800842285156,-55.432106018066406,-22.427818298339844,Left
3551.47900390625,22855,1,1726.0,1547.0,1413.0,1747.0,1979.0,0.0,1599.0,2068.0,139.31800842285156,-55.432106018066406,-22.427818298339844,Left
3553.47900390625,22855,1,1723.0,1525.0,1673.0,1766.0,1763.0,461.0,1679.0,1686.0,139.31800842285156,-55.432106018066406,-22.427818298339844,Left
3555.47900390625,22855,1,1955.0,1603.0,1779.0,1769.0,1823.0,925.0,1801.0,2025.0,139.31800842285156,-55.432106018066406,-22.427818298339844,Left
3557.47900390625,22855,1,1725.0,1629.0,1573.0,663.0,1625.0,3380.0,1855.0,1724.0,139.31800842285156,-55.432106018066406,-22.427818298339844,Left
3559.47900390625,22855,1,1732.0,1659.0,1461.0,0.0,1618.0,3817.0,1827.0,1574.0,139.31800842285156,-55.432106018066406,-22.427818298339844,Left
3564.36669921875,22856,1,1721.0,1672.0,1670.0,0.0,1701.0,3506.0,1763.0,1016.0,139.31800842285156,-55.432106018066406,-22.427818298339844,Left
3566.36669921875,22856,1,1963.0,1688.0,1881.0,0.0,1817.0,2880.0,1805.0,1363.0,139.31800842285156,-55.432106018066406,-22.427818298339844,Left
3568.36669921875,22856,1,1704.0,1709.0,1829.0,0.0,1786.0,1783.0,1751.0,1165.0,139.94943237304688,-55.31245803833008,-23.016109466552734,Left
3570.36669921875,22856,1,1711.0,1944.0,2008.0,0.0,1719.0,0.0,1624.0,1199.0,139.94943237304688,-55.31245803833008,-23.016109466552734,Left
3572.36669921875,22856,1,1716.0,2117.0,1911.0,0.0,1711.0,0.0,1494.0,1301.0,139.94943237304688,-55.31245803833008,-23.016109466552734,Left
3572.89013671875,22857,1,1720.0,1643.0,1662.0,0.0,1723.0,0.0,1541.0,1277.0,139.94943237304688,-55.31245803833008,-23.016109466552734,Left
3574.89013671875,22857,1,1735.0,1627.0,1541.0,0.0,1742.0,701.0,1629.0,1435.0,139.94943237304688,-55.31245803833008,-23.016109466552734,Left
3576.89013671875,22857,1,1703.0,1669.0,1813.0,0.0,1815.0,1757.0,1691.0,1399.0,139.94943237304688,-55.31245803833008,-23.016109466552734,Left
3578.89013671875,22857,1,1755.0,1691.0,1635.0,0.0,1743.0,3496.0,1916.0,1464.0,139.94943237304688,-55.31245803833008,-23.016109466552734,Left
3580.89013671875,22857,1,1701.0,1695.0,1548.0,0.0,1626.0,3797.0,1884.0,1689.0,139.94943237304688,-55.31245803833008,-23.016109466552734,Left
3581.23193359375,22858,1,1710.0,1673.0,1711.0,0.0,1821.0,3294.0,1828.0,1699.0,139.94943237304688,-55.31245803833008,-23.016109466552734,Left
3583.23193359375,22858,1,1699.0,1709.0,1975.0,0.0,1763.0,3054.0,1789.0,1823.0,139.94943237304688,-55.31245803833008,-23.016109466552734,Left
3585.23193359375,22858,1,1971.0,1725.0,1973.0,0.0,1716.0,1669.0,1803.0,2131.0,139.94943237304688,-55.31245803833008,-23.016109466552734,Left
3587.23193359375,22858,1,1719.0,2203.0,1869.0,0.0,1737.0,0.0,1669.0,2141.0,139.94943237304688,-55.31245803833008,-23.016109466552734,Left
3589.23193359375,22858,1,1723.0,2159.0,1645.0,0.0,1727.0,0.0,1661.0,2299.0,139.94943237304688,-55.31245803833008,-23.016109466552734,Left
3591.4990234375,22859,1,1719.0,1558.0,1890.0,0.0,1753.0,216.0,1703.0,1749.0,139.94943237304688,-55.31245803833008,-23.016109466552734,Left
3593.4990234375,22859,1,1949.0,1593.0,1785.0,0.0,1691.0,837.0,1800.0,1823.0,139.94943237304688,-55.31245803833008,-23.016109466552734,Left
3595.4990234375,22859,1,1723.0,1611.0,1824.0,0.0,1724.0,1597.0,1805.0,1959.0,139.94943237304688,-55.31245803833008,-23.016109466552734,Left
3597.4990234375,22859,1,1722.0,1647.0,1612.0,0.0,1771.0,3785.0,1790.0,1691.0,139.94943237304688,-55.31245803833008,-23.016109466552734,Left
3599.4990234375,22859,1,1739.0,1675.0,1387.0,293.0,1735.0,3811.0,1771.0,1547.0,139.94943237304688,-55.31245803833008,-23.016109466552734,Left
3602.376953125,22860,1,1747.0,1691.0,1652.0,552.0,1657.0,3785.0,1769.0,1701.0,139.94943237304688,-55.31245803833008,-23.016109466552734,Left
3604.376953125,22860,1,1750.0,1847.0,1907.0,742.0,1689.0,2917.0,1709.0,1460.0,139.94943237304688,-55.31245803833008,-23.016109466552734,Left
3606.376953125,22860,1,1733.0,1947.0,1907.0,903.0,1708.0,2319.0,1736.0,1971.0,139.94943237304688,-55.31245803833008,-23.016109466552734,Left
3608.376953125,22860,1,1736.0,3091.0,2063.0,1050.0,1887.0,423.0,1720.0,2376.0,139.94943237304688,-55.31245803833008,-23.016109466552734,Left
3610.376953125,22860,1,1747.0,3077.0,1959.0,1147.0,1944.0,0.0,1717.0,2237.0,139.94943237304688,-55.31245803833008,-23.016109466552734,Left
3611.2060546875,22861,1,1751.0,2116.0,1785.0,1262.0,1699.0,712.0,1759.0,2013.0,139.94943237304688,-55.31245803833008,-23.016109466552734,Left
3613.2060546875,22861,1,1759.0,1183.0,1814.0,1317.0,1813.0,1303.0,1755.0,1929.0,139.94943237304688,-55.31245803833008,-23.016109466552734,Left
3615.2060546875,22861,1,1763.0,1161.0,1584.0,1407.0,1695.0,1671.0,1757.0,1619.0,139.94943237304688,-55.31245803833008,-23.016109466552734,Left
3617.2060546875,22861,1,1741.0,1298.0,1559.0,1455.0,1719.0,3817.0,1747.0,1636.0,139.94943237304688,-55.31245803833008,-23.016109466552734,Left
3619.2060546875,22861,1,1742.0,1401.0,1598.0,1499.0,1661.0,3785.0,1735.0,1575.0,139.94943237304688,-55.31245803833008,-23.016109466552734,Left
3625.68212890625,22862,1,1752.0,1471.0,1781.0,1561.0,1800.0,3785.0,1705.0,1449.0,139.94943237304688,-55.31245803833008,-23.016109466552734,Left
3627.68212890625,22862,1,1915.0,1717.0,1773.0,1591.0,1757.0,3811.0,1745.0,2165.0,139.94943237304688,-55.31245803833008,-23.016109466552734,Left
3629.68212890625,22862,1,1723.0,1734.0,1724.0,1613.0,1780.0,2317.0,1722.0,1816.0,139.94943237304688,-55.31245803833008,-23.016109466552734,Left
3631.68212890625,22862,1,1747.0,2879.0,1896.0,1628.0,1763.0,182.0,1675.0,1935.0,139.94943237304688,-55.31245803833008,-23.016109466552734,Left
3633.68212890625,22862,1,1747.0,2779.0,2063.0,1655.0,1770.0,0.0,1747.0,1875.0,139.94943237304688,-55.31245803833008,-23.016109466552734,Left
3634.429931640625,22863,1,1755.0,1978.0,1803.0,1673.0,1652.0,1003.0,1739.0,1993.0,139.9311981201172,-55.2462158203125,-23.166921615600586,Left
3636.429931640625,22863,1,1747.0,1213.0,1693.0,1687.0,1823.0,1052.0,1747.0,1742.0,139.9311981201172,-55.2462158203125,-23.166921615600586,Left
3638.429931640625,22863,1,1739.0,1151.0,1651.0,1683.0,1727.0,1898.0,1725.0,1738.0,139.9311981201172,-55.2462158203125,-23.166921615600586,Left
