Timestamp_ms,Packet_Number,Trial_ID,Ch1,Ch2,Ch3,Ch4,Ch5,Ch6,Ch7,Ch8,Ch9,Ch10,Ch11,Label
2208.8310546875,9954,1,1755.0,1721.0,1759.0,1741.0,1752.0,1755.0,1763.0,1743.0,133.90077209472656,4.6502227783203125,35.417091369628906,Left
2210.8310546875,9954,1,1740.0,1742.0,1739.0,1751.0,1750.0,1749.0,1761.0,1748.0,133.90077209472656,4.6502227783203125,35.417091369628906,Left
2212.8310546875,9954,1,1747.0,1754.0,1759.0,1767.0,1747.0,1755.0,1763.0,1754.0,133.90077209472656,4.6502227783203125,35.417091369628906,Left
2214.8310546875,9954,1,1752.0,1757.0,1708.0,1757.0,1751.0,1737.0,1765.0,1736.0,133.90077209472656,4.6502227783203125,35.417091369628906,Left
2216.8310546875,9954,1,1759.0,1741.0,1755.0,1763.0,1753.0,1755.0,1762.0,1749.0,133.90077209472656,4.6502227783203125,35.417091369628906,Left
2303.4677734375,9955,1,1765.0,1739.0,1751.0,1787.0,1754.0,1753.0,1765.0,1758.0,133.90077209472656,4.6502227783203125,35.417091369628906,Left
2305.4677734375,9955,1,1773.0,1751.0,1764.0,1771.0,1751.0,1747.0,1763.0,1759.0,133.90077209472656,4.6502227783203125,35.417091369628906,Left
2307.4677734375,9955,1,1769.0,1747.0,1773.0,1753.0,1755.0,1737.0,1751.0,1763.0,133.90077209472656,4.6502227783203125,35.417091369628906,Left
2309.4677734375,9955,1,1757.0,1757.0,1775.0,1752.0,1750.0,1737.0,1743.0,1804.0,133.73565673828125,4.571244716644287,35.274810791015625,Left
2311.4677734375,9955,1,1763.0,1754.0,1751.0,1752.0,1752.0,1751.0,1762.0,1707.0,133.73565673828125,4.571244716644287,35.274810791015625,Left
2304.6328125,9956,1,1759.0,1751.0,1753.0,1784.0,1755.0,1748.0,1763.0,1695.0,133.73565673828125,4.571244716644287,35.274810791015625,Left
2306.6328125,9956,1,1753.0,1754.0,1753.0,1765.0,1753.0,1739.0,1761.0,1806.0,133.73565673828125,4.571244716644287,35.274810791015625,Left
2308.6328125,9956,1,1751.0,1756.0,1769.0,1757.0,1753.0,1750.0,1757.0,1749.0,133.73565673828125,4.571244716644287,35.274810791015625,Left
2310.6328125,9956,1,1751.0,1756.0,1763.0,1738.0,1751.0,1751.0,1763.0,1743.0,133.73565673828125,4.571244716644287,35.274810791015625,Left
2312.6328125,9956,1,1747.0,1754.0,1751.0,1770.0,1753.0,1755.0,1765.0,1737.0,133.73565673828125,4.571244716644287,35.274810791015625,Left
2305.001953125,9957,1,1765.0,1742.0,1763.0,1768.0,1756.0,1736.0,1764.0,1771.0,133.73565673828125,4.571244716644287,35.274810791015625,Left
2307.001953125,9957,1,1769.0,1755.0,1755.0,1809.0,1753.0,1751.0,1766.0,1742.0,133.73565673828125,4.571244716644287,35.274810791015625,Left
2309.001953125,9957,1,1769.0,1759.0,1739.0,1768.0,1753.0,1739.0,1762.0,1733.0,133.73565673828125,4.571244716644287,35.274810791015625,Left
2311.001953125,9957,1,1771.0,1757.0,1763.0,1774.0,1753.0,1750.0,1763.0,1699.0,133.73565673828125,4.571244716644287,35.274810791015625,Left
2313.001953125,9957,1,1763.0,1761.0,1828.0,1768.0,1755.0,1748.0,1749.0,1707.0,133.73565673828125,4.571244716644287,35.274810791015625,Left
2308.69091796875,9958,1,1754.0,1743.0,1752.0,1705.0,1753.0,1749.0,1764.0,1717.0,133.73565673828125,4.571244716644287,35.274810791015625,Left
2310.69091796875,9958,1,1749.0,1751.0,1693.0,1736.0,1752.0,1754.0,1765.0,1811.0,133.73565673828125,4.571244716644287,35.274810791015625,Left
2312.69091796875,9958,1,1741.0,1758.0,1737.0,1721.0,1735.0,1753.0,1757.0,1813.0,133.73565673828125,4.571244716644287,35.274810791015625,Left
2314.69091796875,9958,1,1751.0,1740.0,1803.0,1763.0,1753.0,1752.0,1763.0,1833.0,133.73565673828125,4.571244716644287,35.274810791015625,Left
2316.69091796875,9958,1,1753.0,1755.0,1740.0,1781.0,1739.0,1749.0,1767.0,1693.0,133.73565673828125,4.571244716644287,35.274810791015625,Left
2309.046875,9959,1,1763.0,1757.0,1748.0,1767.0,1754.0,1753.0,1765.0,1705.0,133.73565673828125,4.571244716644287,35.274810791015625,Left
2311.046875,9959,1,1770.0,1756.0,1803.0,1757.0,1751.0,1739.0,1758.0,1709.0,133.73565673828125,4.571244716644287,35.274810791015625,Left
2313.046875,9959,1,1773.0,1743.0,1767.0,1751.0,1739.0,1748.0,1749.0,1716.0,133.73565673828125,4.571244716644287,35.274810791015625,Left
2315.046875,9959,1,1769.0,1757.0,1721.0,1741.0,1750.0,1753.0,1763.0,1785.0,133.73565673828125,4.571244716644287,35.274810791015625,Left
2317.046875,9959,1,1767.0,1753.0,1708.0,1747.0,1740.0,1750.0,1759.0,1765.0,133.73565673828125,4.571244716644287,35.274810791015625,Left
2309.328125,9960,1,1749.0,1755.0,1779.0,1741.0,1753.0,1749.0,1763.0,1739.0,133.73565673828125,4.571244716644287,35.274810791015625,Left
2311.328125,9960,1,1753.0,1751.0,1769.0,1753.0,1752.0,1751.0,1758.0,1785.0,133.73565673828125,4.571244716644287,35.274810791015625,Left
2313.328125,9960,1,1751.0,1753.0,1787.0,1799.0,1754.0,1751.0,1763.0,1755.0,133.73565673828125,4.571244716644287,35.274810791015625,Left
2315.328125,9960,1,1752.0,1745.0,1759.0,1775.0,1735.0,1751.0,1766.0,1759.0,133.73565673828125,4.571244716644287,35.274810791015625,Left
2317.328125,9960,1,1757.0,1755.0,1733.0,1784.0,1754.0,1752.0,1756.0,1737.0,133.73565673828125,4.571244716644287,35.274810791015625,Left
2309.85400390625,9961,1,1765.0,1758.0,1749.0,1783.0,1749.0,1743.0,1761.0,1737.0,133.73565673828125,4.571244716644287,35.274810791015625,Left
2311.85400390625,9961,1,1773.0,1752.0,1775.0,1747.0,1738.0,1751.0,1765.0,1815.0,133.73565673828125,4.571244716644287,35.274810791015625,Left
2313.85400390625,9961,1,1773.0,1757.0,1742.0,1701.0,1753.0,1736.0,1759.0,1721.0,133.73565673828125,4.571244716644287,35.274810791015625,Left
2315.85400390625,9961,1,1775.0,1759.0,1736.0,1751.0,1751.0,1754.0,1758.0,1595.0,133.73565673828125,4.571244716644287,35.274810791015625,Left
2317.85400390625,9961,1,1767.0,1757.0,1743.0,1783.0,1752.0,1755.0,1764.0,1785.0,133.73565673828125,4.571244716644287,35.274810791015625,Left
2310.134765625,9962,1,1759.0,1747.0,1771.0,1737.0,1753.0,1755.0,1763.0,1813.0,133.73565673828125,4.571244716644287,35.274810791015625,Left
2312.134765625,9962,1,1753.0,1756.0,1769.0,1751.0,1751.0,1753.0,1759.0,1797.0,133.8879852294922,4.367021083831787,35.23170471191406,Left
2314.134765625,9962,1,1739.0,1757.0,1764.0,1764.0,1752.0,1749.0,1763.0,1763.0,133.8879852294922,4.367021083831787,35.23170471191406,Left
2316.134765625,9962,1,1755.0,1754.0,1746.0,1765.0,1753.0,1749.0,1757.0,1753.0,133.8879852294922,4.367021083831787,35.23170471191406,Left
2318.134765625,9962,1,1761.0,1761.0,1761.0,1763.0,1753.0,1754.0,1763.0,1753.0,133.8879852294922,4.367021083831787,35.23170471191406,Left
2310.680908203125,9963,1,1765.0,1755.0,1738.0,1775.0,1755.0,1755.0,1749.0,1723.0,133.8879852294922,4.367021083831787,35.23170471191406,Left
2312.680908203125,9963,1,1771.0,1741.0,1751.0,1755.0,1752.0,1749.0,1764.0,1771.0,133.8879852294922,4.367021083831787,35.23170471191406,Left
2314.680908203125,9963,1,1771.0,1758.0,1727.0,1742.0,1757.0,1754.0,1759.0,1759.0,133.8879852294922,4.367021083831787,35.23170471191406,Left
2316.680908203125,9963,1,1773.0,1743.0,1759.0,1767.0,1737.0,1755.0,1764.0,1751.0,133.8879852294922,4.367021083831787,35.23170471191406,Left
2318.680908203125,9963,1,1765.0,1759.0,1751.0,1773.0,1755.0,1739.0,1749.0,1727.0,133.8879852294922,4.367021083831787,35.23170471191406,Left
2311.04296875,9964,1,1759.0,1743.0,1758.0,1766.0,1737.0,1751.0,1745.0,1748.0,133.8879852294922,4.367021083831787,35.23170471191406,Left
2313.04296875,9964,1,1759.0,1753.0,1756.0,1775.0,1736.0,1736.0,1762.0,1755.0,133.8879852294922,4.367021083831787,35.23170471191406,Left
2315.04296875,9964,1,1753.0,1757.0,1767.0,1736.0,1753.0,1735.0,1767.0,1785.0,133.8879852294922,4.367021083831787,35.23170471191406,Left
2317.04296875,9964,1,1757.0,1758.0,1747.0,1757.0,1753.0,1753.0,1755.0,1736.0,133.8879852294922,4.367021083831787,35.23170471191406,Left
2319.04296875,9964,1,1752.0,1761.0,1733.0,1742.0,1738.0,1750.0,1754.0,1662.0,133.8879852294922,4.367021083831787,35.23170471191406,Left
2311.3740234375,9965,1,1769.0,1757.0,1734.0,1757.0,1753.0,1753.0,1755.0,1753.0,133.8879852294922,4.367021083831787,35.23170471191406,Left
2313.3740234375,9965,1,1771.0,1757.0,1757.0,1747.0,1749.0,1749.0,1758.0,1790.0,133.8879852294922,4.367021083831787,35.23170471191406,Left
2315.3740234375,9965,1,1773.0,1756.0,1766.0,1726.0,1755.0,1751.0,1757.0,1719.0,133.8879852294922,4.367021083831787,35.23170471191406,Left
2317.3740234375,9965,1,1773.0,1753.0,1739.0,1751.0,1742.0,1753.0,1758.0,1773.0,133.8879852294922,4.367021083831787,35.23170471191406,Left
2319.3740234375,9965,1,1765.0,1740.0,1752.0,1763.0,1749.0,1737.0,1763.0,1735.0,133.8879852294922,4.367021083831787,35.23170471191406,Left
2339.223876953125,9966,1,1755.0,1758.0,1757.0,1781.0,1749.0,1748.0,1763.0,1751.0,133.8879852294922,4.367021083831787,35.23170471191406,Left
2341.223876953125,9966,1,1753.0,1741.0,1773.0,1775.0,1748.0,1751.0,1751.0,1753.0,133.8879852294922,4.367021083831787,35.23170471191406,Left
2343.223876953125,9966,1,1753.0,1755.0,1783.0,1755.0,1753.0,1751.0,1763.0,1757.0,133.8879852294922,4.367021083831787,35.23170471191406,Left
2345.223876953125,9966,1,1741.0,1757.0,1722.0,1721.0,1748.0,1737.0,1747.0,1767.0,133.8879852294922,4.367021083831787,35.23170471191406,Left
2347.223876953125,9966,1,1761.0,1757.0,1721.0,1785.0,1751.0,1753.0,1763.0,1742.0,133.8879852294922,4.367021083831787,35.23170471191406,Left
2339.830810546875,9967,1,1764.0,1754.0,1768.0,1741.0,1752.0,1755.0,1751.0,1753.0,133.8879852294922,4.367021083831787,35.23170471191406,Left
2341.830810546875,9967,1,1767.0,1741.0,1773.0,1756.0,1752.0,1748.0,1751.0,1753.0,133.8879852294922,4.367021083831787,35.23170471191406,Left
2343.830810546875,9967,1,1768.0,1752.0,1772.0,1755.0,1757.0,1752.0,1757.0,1750.0,133.8879852294922,4.367021083831787,35.23170471191406,Left
2345.830810546875,9967,1,1770.0,1741.0,1779.0,1766.0,1739.0,1737.0,1763.0,1779.0,133.8879852294922,4.367021083831787,35.23170471191406,Left
2347.830810546875,9967,1,1763.0,1757.0,1775.0,1739.0,1756.0,1738.0,1763.0,1757.0,133.8879852294922,4.367021083831787,35.23170471191406,Left
2340.157958984375,9968,1,1754.0,1761.0,1763.0,1739.0,1751.0,1755.0,1764.0,1691.0,133.8879852294922,4.367021083831787,35.23170471191406,Left
2342.157958984375,9968,1,1747.0,1754.0,1695.0,1751.0,1753.0,1737.0,1765.0,1669.0,133.8879852294922,4.367021083831787,35.23170471191406,Left
2344.157958984375,9968,1,1751.0,1757.0,1670.0,1747.0,1771.0,1755.0,1762.0,1767.0,133.8879852294922,4.367021083831787,35.23170471191406,Left
2346.157958984375,9968,1,1750.0,1757.0,1771.0,1747.0,1756.0,1752.0,1757.0,1767.0,133.885498046875,4.182178974151611,35.18769836425781,Left
2348.157958984375,9968,1,1755.0,1752.0,1720.0,1781.0,1754.0,1751.0,1759.0,1719.0,133.885498046875,4.182178974151611,35.18769836425781,Left
2340.75,9969,1,1767.0,1757.0,1763.0,1767.0,1750.0,1752.0,1765.0,1813.0,133.885498046875,4.182178974151611,35.18769836425781,Left
2342.75,9969,1,1758.0,1753.0,1815.0,1799.0,1755.0,1755.0,1758.0,1815.0,133.885498046875,4.182178974151611,35.18769836425781,Left
2344.75,9969,1,1773.0,1757.0,1799.0,1785.0,1737.0,1737.0,1765.0,1787.0,133.885498046875,4.182178974151611,35.18769836425781,Left
2346.75,9969,1,1757.0,1757.0,1757.0,1691.0,1751.0,1749.0,1761.0,1701.0,133.885498046875,4.182178974151611,35.18769836425781,Left
2348.75,9969,1,1765.0,1741.0,1727.0,1751.0,1749.0,1747.0,1759.0,1593.0,133.885498046875,4.182178974151611,35.18769836425781,Left
2346.722900390625,9970,1,1753.0,1757.0,1734.0,1725.0,1735.0,1749.0,1763.0,1759.0,133.885498046875,4.182178974151611,35.18769836425781,Left
2348.722900390625,9970,1,1737.0,1755.0,1767.0,1759.0,1753.0,1749.0,1765.0,1752.0,133.885498046875,4.182178974151611,35.18769836425781,Left
2350.722900390625,9970,1,1727.0,1747.0,1707.0,1751.0,1751.0,1753.0,1764.0,1747.0,133.885498046875,4.182178974151611,35.18769836425781,Left
2352.722900390625,9970,1,1750.0,1757.0,1758.0,1721.0,1755.0,1752.0,1765.0,1753.0,133.885498046875,4.182178974151611,35.18769836425781,Left
2354.722900390625,9970,1,1756.0,1741.0,1767.0,1768.0,1739.0,1753.0,1763.0,1751.0,133.885498046875,4.182178974151611,35.18769836425781,Left
2365.737060546875,9971,1,1767.0,1741.0,1759.0,1695.0,1749.0,1752.0,1759.0,1764.0,133.885498046875,4.182178974151611,35.18769836425781,Left
2367.737060546875,9971,1,1767.0,1753.0,1764.0,1785.0,1755.0,1755.0,1762.0,1741.0,133.885498046875,4.182178974151611,35.18769836425781,Left
2369.737060546875,9971,1,1770.0,1753.0,1771.0,1775.0,1737.0,1753.0,1749.0,1747.0,133.885498046875,4.182178974151611,35.18769836425781,Left
2371.737060546875,9971,1,1773.0,1757.0,1749.0,1765.0,1755.0,1752.0,1759.0,1769.0,133.885498046875,4.182178974151611,35.18769836425781,Left
2373.737060546875,9971,1,1759.0,1757.0,1767.0,1775.0,1739.0,1755.0,1763.0,1771.0,133.885498046875,4.182178974151611,35.18769836425781,Left
2369.51513671875,9972,1,1757.0,1755.0,1750.0,1765.0,1747.0,1737.0,1765.0,1686.0,133.885498046875,4.182178974151611,35.18769836425781,Left
2371.51513671875,9972,1,1752.0,1755.0,1767.0,1757.0,1752.0,1751.0,1762.0,1811.0,133.885498046875,4.182178974151611,35.18769836425781,Left
2373.51513671875,9972,1,1752.0,1755.0,1769.0,1767.0,1752.0,1751.0,1763.0,1765.0,133.885498046875,4.182178974151611,35.18769836425781,Left
2375.51513671875,9972,1,1755.0,1759.0,1753.0,1719.0,1753.0,1751.0,1764.0,1735.0,133.885498046875,4.182178974151611,35.18769836425781,Left
2377.51513671875,9972,1,1748.0,1739.0,1752.0,1751.0,1755.0,1749.0,1763.0,1741.0,133.885498046875,4.182178974151611,35.18769836425781,Left
2414.005126953125,9973,1,1765.0,1761.0,1749.0,1768.0,1738.0,1749.0,1755.0,1739.0,133.885498046875,4.182178974151611,35.18769836425781,Left
2416.005126953125,9973,1,1766.0,1755.0,1755.0,1769.0,1749.0,1754.0,1755.0,1742.0,133.885498046875,4.182178974151611,35.18769836425781,Left
2418.005126953125,9973,1,1767.0,1747.0,1757.0,1740.0,1753.0,1751.0,1766.0,1747.0,133.885498046875,4.182178974151611,35.18769836425781,Left
2420.005126953125,9973,1,1773.0,1743.0,1753.0,1763.0,1751.0,1753.0,1759.0,1742.0,133.885498046875,4.182178974151611,35.18769836425781,Left
2422.005126953125,9973,1,1755.0,1753.0,1756.0,1735.0,1755.0,1748.0,1758.0,1720.0,133.885498046875,4.182178974151611,35.18769836425781,Left
2415.472900390625,9974,1,1757.0,1755.0,1754.0,1751.0,1752.0,1757.0,1767.0,1758.0,133.885498046875,4.182178974151611,35.18769836425781,Left
2417.472900390625,9974,1,1753.0,1753.0,1764.0,1756.0,1755.0,1736.0,1765.0,1775.0,133.885498046875,4.182178974151611,35.18769836425781,Left
2419.472900390625,9974,1,1739.0,1757.0,1765.0,1768.0,1747.0,1745.0,1763.0,1756.0,133.885498046875,4.182178974151611,35.18769836425781,Left
2421.472900390625,9974,1,1754.0,1757.0,1764.0,1755.0,1755.0,1747.0,1763.0,1755.0,133.885498046875,4.182178974151611,35.18769836425781,Left
2423.472900390625,9974,1,1763.0,1742.0,1781.0,1750.0,1754.0,1752.0,1747.0,1751.0,133.885498046875,4.182178974151611,35.18769836425781,Left
2415.9541015625,9975,1,1767.0,1759.0,1741.0,1771.0,1739.0,1753.0,1767.0,1754.0,133.9826202392578,3.936150074005127,35.15217971801758,Left
2417.9541015625,9975,1,1771.0,1763.0,1727.0,1763.0,1752.0,1756.0,1757.0,1737.0,133.9826202392578,3.936150074005127,35.15217971801758,Left
2419.9541015625,9975,1,1775.0,1753.0,1749.0,1757.0,1755.0,1749.0,1765.0,1767.0,133.9826202392578,3.936150074005127,35.15217971801758,Left
2421.9541015625,9975,1,1773.0,1753.0,1771.0,1736.0,1750.0,1737.0,1765.0,1749.0,133.9826202392578,3.936150074005127,35.15217971801758,Left
2423.9541015625,9975,1,1764.0,1759.0,1773.0,1757.0,1747.0,1754.0,1765.0,1687.0,133.9826202392578,3.936150074005127,35.15217971801758,Left
2416.2841796875,9976,1,1763.0,1763.0,1779.0,1767.0,1753.0,1737.0,1755.0,1716.0,133.9826202392578,3.936150074005127,35.15217971801758,Left
2418.2841796875,9976,1,1748.0,1762.0,1771.0,1771.0,1753.0,1740.0,1763.0,1832.0,133.9826202392578,3.936150074005127,35.15217971801758,Left
2420.2841796875,9976,1,1747.0,1746.0,1745.0,1724.0,1753.0,1735.0,1748.0,1717.0,133.9826202392578,3.936150074005127,35.15217971801758,Left
2422.2841796875,9976,1,1741.0,1756.0,1703.0,1767.0,1756.0,1737.0,1763.0,1775.0,133.9826202392578,3.936150074005127,35.15217971801758,Left
2424.2841796875,9976,1,1756.0,1753.0,1720.0,1725.0,1752.0,1751.0,1765.0,1769.0,133.9826202392578,3.936150074005127,35.15217971801758,Left
2498.05712890625,9977,1,1759.0,1765.0,1778.0,1757.0,1755.0,1751.0,1763.0,1749.0,133.9826202392578,3.936150074005127,35.15217971801758,Left
2500.05712890625,9977,1,1778.0,1743.0,1785.0,1759.0,1752.0,1749.0,1763.0,1701.0,133.9826202392578,3.936150074005127,35.15217971801758,Left
2502.05712890625,9977,1,1773.0,1753.0,1763.0,1753.0,1753.0,1737.0,1760.0,1701.0,133.9826202392578,3.936150074005127,35.15217971801758,Left
2504.05712890625,9977,1,1770.0,1752.0,1767.0,1763.0,1737.0,1751.0,1767.0,1763.0,133.9826202392578,3.936150074005127,35.15217971801758,Left
2506.05712890625,9977,1,1767.0,1756.0,1765.0,1768.0,1756.0,1747.0,1764.0,1781.0,133.9826202392578,3.936150074005127,35.15217971801758,Left
2499.1640625,9978,1,1757.0,1736.0,1753.0,1755.0,1755.0,1735.0,1763.0,1695.0,133.9826202392578,3.936150074005127,35.15217971801758,Left
2501.1640625,9978,1,1749.0,1763.0,1736.0,1763.0,1753.0,1757.0,1765.0,1757.0,133.9826202392578,3.936150074005127,35.15217971801758,Left
2503.1640625,9978,1,1751.0,1747.0,1801.0,1763.0,1736.0,1738.0,1766.0,1789.0,133.9826202392578,3.936150074005127,35.15217971801758,Left
2505.1640625,9978,1,1755.0,1757.0,1819.0,1740.0,1755.0,1753.0,1763.0,1848.0,133.9826202392578,3.936150074005127,35.15217971801758,Left
2507.1640625,9978,1,1759.0,1755.0,1736.0,1769.0,1737.0,1756.0,1763.0,1701.0,133.9826202392578,3.936150074005127,35.15217971801758,Left
2502.65185546875,9979,1,1767.0,1741.0,1685.0,1738.0,1752.0,1747.0,1762.0,1706.0,133.9826202392578,3.936150074005127,35.15217971801758,Left
2504.65185546875,9979,1,1775.0,1756.0,1745.0,1747.0,1740.0,1749.0,1763.0,1735.0,133.9826202392578,3.936150074005127,35.15217971801758,Left
2506.65185546875,9979,1,1772.0,1756.0,1756.0,1747.0,1753.0,1748.0,1757.0,1749.0,133.9826202392578,3.936150074005127,35.15217971801758,Left
2508.65185546875,9979,1,1752.0,1763.0,1772.0,1765.0,1753.0,1735.0,1764.0,1775.0,133.9826202392578,3.936150074005127,35.15217971801758,Left
2510.65185546875,9979,1,1763.0,1757.0,1757.0,1773.0,1753.0,1737.0,1761.0,1695.0,133.9826202392578,3.936150074005127,35.15217971801758,Left
2502.986083984375,9980,1,1753.0,1757.0,1771.0,1775.0,1735.0,1752.0,1748.0,1756.0,133.9826202392578,3.936150074005127,35.15217971801758,Left
2504.986083984375,9980,1,1753.0,1757.0,1707.0,1769.0,1754.0,1752.0,1761.0,1740.0,133.9826202392578,3.936150074005127,35.15217971801758,Left
2506.986083984375,9980,1,1746.0,1756.0,1786.0,1763.0,1752.0,1737.0,1757.0,1725.0,133.9826202392578,3.936150074005127,35.15217971801758,Left
2508.986083984375,9980,1,1751.0,1755.0,1755.0,1757.0,1739.0,1756.0,1759.0,1767.0,133.9826202392578,3.936150074005127,35.15217971801758,Left
2510.986083984375,9980,1,1757.0,1753.0,1751.0,1747.0,1755.0,1755.0,1759.0,1733.0,133.9826202392578,3.936150074005127,35.15217971801758,Left
2503.27099609375,9981,1,1763.0,1756.0,1721.0,1737.0,1755.0,1751.0,1765.0,1742.0,133.9826202392578,3.936150074005127,35.15217971801758,Left
2505.27099609375,9981,1,1771.0,1758.0,1758.0,1755.0,1753.0,1753.0,1765.0,1743.0,133.9826202392578,3.936150074005127,35.15217971801758,Left
2507.27099609375,9981,1,1773.0,1755.0,1759.0,1791.0,1747.0,1752.0,1763.0,1763.0,133.9826202392578,3.936150074005127,35.15217971801758,Left
2509.27099609375,9981,1,1768.0,1759.0,1747.0,1726.0,1749.0,1749.0,1763.0,1749.0,134.1066436767578,3.74031662940979,35.069618225097656,Left
2511.27099609375,9981,1,1765.0,1755.0,1774.0,1741.0,1755.0,1750.0,1763.0,1759.0,134.1066436767578,3.74031662940979,35.069618225097656,Left
2503.550048828125,9982,1,1755.0,1753.0,1767.0,1739.0,1748.0,1749.0,1756.0,1755.0,134.1066436767578,3.74031662940979,35.069618225097656,Left
2505.550048828125,9982,1,1753.0,1727.0,1765.0,1757.0,1749.0,1755.0,1759.0,1755.0,134.1066436767578,3.74031662940979,35.069618225097656,Left
2507.550048828125,9982,1,1748.0,1757.0,1763.0,1759.0,1757.0,1751.0,1749.0,1751.0,134.1066436767578,3.74031662940979,35.069618225097656,Left
2509.550048828125,9982,1,1754.0,1758.0,1743.0,1771.0,1754.0,1752.0,1758.0,1759.0,134.1066436767578,3.74031662940979,35.069618225097656,Left
2511.550048828125,9982,1,1762.0,1755.0,1751.0,1773.0,1752.0,1755.0,1759.0,1755.0,134.1066436767578,3.74031662940979,35.069618225097656,Left
2503.823974609375,9983,1,1767.0,1758.0,1771.0,1754.0,1749.0,1735.0,1747.0,1755.0,134.1066436767578,3.74031662940979,35.069618225097656,Left
2505.823974609375,9983,1,1771.0,1757.0,1764.0,1764.0,1751.0,1739.0,1766.0,1740.0,134.1066436767578,3.74031662940979,35.069618225097656,Left
2507.823974609375,9983,1,1771.0,1756.0,1755.0,1739.0,1751.0,1737.0,1746.0,1752.0,134.1066436767578,3.74031662940979,35.069618225097656,Left
2509.823974609375,9983,1,1767.0,1763.0,1758.0,1737.0,1747.0,1751.0,1748.0,1742.0,134.1066436767578,3.74031662940979,35.069618225097656,Left
2511.823974609375,9983,1,1755.0,1757.0,1779.0,1767.0,1753.0,1753.0,1765.0,1735.0,134.1066436767578,3.74031662940979,35.069618225097656,Left
2504.098876953125,9984,1,1752.0,1751.0,1753.0,1767.0,1748.0,1759.0,1765.0,1739.0,134.1066436767578,3.74031662940979,35.069618225097656,Left
2506.098876953125,9984,1,1745.0,1756.0,1735.0,1724.0,1751.0,1752.0,1765.0,1717.0,134.1066436767578,3.74031662940979,35.069618225097656,Left
2508.098876953125,9984,1,1747.0,1743.0,1741.0,1759.0,1755.0,1753.0,1757.0,1782.0,134.1066436767578,3.74031662940979,35.069618225097656,Left
2510.098876953125,9984,1,1755.0,1740.0,1780.0,1740.0,1755.0,1752.0,1764.0,1675.0,134.1066436767578,3.74031662940979,35.069618225097656,Left
2512.098876953125,9984,1,1751.0,1741.0,1725.0,1767.0,1755.0,1748.0,1765.0,1687.0,134.1066436767578,3.74031662940979,35.069618225097656,Left
2504.379150390625,9985,1,1757.0,1761.0,1748.0,1768.0,1751.0,1755.0,1765.0,1855.0,134.1066436767578,3.74031662940979,35.069618225097656,Left
2506.379150390625,9985,1,1768.0,1756.0,1789.0,1717.0,1753.0,1756.0,1765.0,1837.0,134.1066436767578,3.74031662940979,35.069618225097656,Left
2508.379150390625,9985,1,1769.0,1757.0,1789.0,1772.0,1755.0,1749.0,1763.0,1879.0,134.1066436767578,3.74031662940979,35.069618225097656,Left
2510.379150390625,9985,1,1767.0,1759.0,1654.0,1765.0,1749.0,1755.0,1762.0,1513.0,134.1066436767578,3.74031662940979,35.069618225097656,Left
2512.379150390625,9985,1,1758.0,1755.0,1748.0,1773.0,1751.0,1753.0,1751.0,1721.0,134.1066436767578,3.74031662940979,35.069618225097656,Left
2570.926025390625,9986,1,1758.0,1754.0,1723.0,1763.0,1753.0,1752.0,1755.0,1747.0,134.1066436767578,3.74031662940979,35.069618225097656,Left
2572.926025390625,9986,1,1751.0,1759.0,1806.0,1751.0,1752.0,1754.0,1764.0,1783.0,134.1066436767578,3.74031662940979,35.069618225097656,Left
2574.926025390625,9986,1,1752.0,1752.0,1773.0,1727.0,1735.0,1739.0,1759.0,1757.0,134.1066436767578,3.74031662940979,35.069618225097656,Left
2576.926025390625,9986,1,1740.0,1758.0,1739.0,1725.0,1749.0,1750.0,1755.0,1791.0,134.1066436767578,3.74031662940979,35.069618225097656,Left
2578.926025390625,9986,1,1765.0,1758.0,1763.0,1786.0,1749.0,1741.0,1742.0,1767.0,134.1066436767578,3.74031662940979,35.069618225097656,Left
2571.572998046875,9987,1,1769.0,1759.0,1751.0,1775.0,1753.0,1753.0,1761.0,1745.0,134.1066436767578,3.74031662940979,35.069618225097656,Left
2573.572998046875,9987,1,1773.0,1757.0,1736.0,1788.0,1752.0,1753.0,1761.0,1785.0,134.1066436767578,3.74031662940979,35.069618225097656,Left
2575.572998046875,9987,1,1771.0,1757.0,1738.0,1759.0,1717.0,1749.0,1763.0,1733.0,134.1066436767578,3.74031662940979,35.069618225097656,Left
2577.572998046875,9987,1,1767.0,1757.0,1764.0,1757.0,1740.0,1753.0,1765.0,1641.0,134.1066436767578,3.74031662940979,35.069618225097656,Left
2579.572998046875,9987,1,1767.0,1757.0,1747.0,1752.0,1753.0,1756.0,1751.0,1785.0,134.1066436767578,3.74031662940979,35.069618225097656,Left
2572.06591796875,9988,1,1753.0,1757.0,1747.0,1763.0,1756.0,1749.0,1759.0,1801.0,134.1066436767578,3.74031662940979,35.069618225097656,Left
2574.06591796875,9988,1,1748.0,1755.0,1775.0,1748.0,1755.0,1741.0,1765.0,1728.0,134.16078186035156,3.679987668991089,34.89787673950195,Left
2576.06591796875,9988,1,1749.0,1755.0,1753.0,1767.0,1747.0,1753.0,1764.0,1596.0,134.16078186035156,3.679987668991089,34.89787673950195,Left
2578.06591796875,9988,1,1753.0,1754.0,1763.0,1779.0,1753.0,1737.0,1763.0,1843.0,134.16078186035156,3.679987668991089,34.89787673950195,Left
2580.06591796875,9988,1,1761.0,1761.0,1747.0,1764.0,1755.0,1737.0,1763.0,1815.0,134.16078186035156,3.679987668991089,34.89787673950195,Left
2572.447021484375,9989,1,1765.0,1757.0,1757.0,1763.0,1749.0,1743.0,1764.0,1752.0,134.16078186035156,3.679987668991089,34.89787673950195,Left
2574.447021484375,9989,1,1776.0,1741.0,1721.0,1741.0,1737.0,1754.0,1766.0,1715.0,134.16078186035156,3.679987668991089,34.89787673950195,Left
2576.447021484375,9989,1,1775.0,1755.0,1749.0,1737.0,1756.0,1753.0,1767.0,1711.0,134.16078186035156,3.679987668991089,34.89787673950195,Left
2578.447021484375,9989,1,1773.0,1755.0,1766.0,1772.0,1737.0,1751.0,1762.0,1746.0,134.16078186035156,3.679987668991089,34.89787673950195,Left
2580.447021484375,9989,1,1749.0,1756.0,1747.0,1751.0,1737.0,1754.0,1766.0,1765.0,134.16078186035156,3.679987668991089,34.89787673950195,Left
2572.89892578125,9990,1,1751.0,1755.0,1771.0,1757.0,1755.0,1751.0,1765.0,1755.0,134.16078186035156,3.679987668991089,34.89787673950195,Left
2574.89892578125,9990,1,1751.0,1753.0,1755.0,1764.0,1755.0,1755.0,1747.0,1735.0,134.16078186035156,3.679987668991089,34.89787673950195,Left
2576.89892578125,9990,1,1750.0,1759.0,1739.0,1755.0,1767.0,1753.0,1750.0,1692.0,134.16078186035156,3.679987668991089,34.89787673950195,Left
2578.89892578125,9990,1,1750.0,1757.0,1741.0,1749.0,1735.0,1755.0,1750.0,1739.0,134.16078186035156,3.679987668991089,34.89787673950195,Left
2580.89892578125,9990,1,1757.0,1753.0,1745.0,1767.0,1752.0,1753.0,1763.0,1765.0,134.16078186035156,3.679987668991089,34.89787673950195,Left
2573.4150390625,9991,1,1767.0,1753.0,1769.0,1767.0,1751.0,1757.0,1765.0,1772.0,134.16078186035156,3.679987668991089,34.89787673950195,Left
2575.4150390625,9991,1,1769.0,1755.0,1800.0,1749.0,1751.0,1752.0,1749.0,1733.0,134.16078186035156,3.679987668991089,34.89787673950195,Left
2577.4150390625,9991,1,1772.0,1759.0,1751.0,1771.0,1751.0,1755.0,1761.0,1749.0,134.16078186035156,3.679987668991089,34.89787673950195,Left
2579.4150390625,9991,1,1769.0,1755.0,1699.0,1763.0,1739.0,1751.0,1763.0,1756.0,134.16078186035156,3.679987668991089,34.89787673950195,Left
2581.4150390625,9991,1,1749.0,1755.0,1707.0,1746.0,1753.0,1755.0,1763.0,1745.0,134.16078186035156,3.679987668991089,34.89787673950195,Left
2573.7568359375,9992,1,1751.0,1756.0,1803.0,1765.0,1751.0,1738.0,1764.0,1788.0,134.16078186035156,3.679987668991089,34.89787673950195,Left
2575.7568359375,9992,1,1749.0,1753.0,1756.0,1779.0,1749.0,1751.0,1762.0,1791.0,134.16078186035156,3.679987668991089,34.89787673950195,Left
2577.7568359375,9992,1,1751.0,1752.0,1739.0,1743.0,1747.0,1739.0,1745.0,1707.0,134.16078186035156,3.679987668991089,34.89787673950195,Left
2579.7568359375,9992,1,1759.0,1755.0,1743.0,1779.0,1737.0,1737.0,1763.0,1625.0,134.16078186035156,3.679987668991089,34.89787673950195,Left
2581.7568359375,9992,1,1758.0,1755.0,1789.0,1754.0,1754.0,1750.0,1749.0,1828.0,134.16078186035156,3.679987668991089,34.89787673950195,Left
2577.601806640625,9993,1,1771.0,1741.0,1740.0,1769.0,1737.0,1753.0,1764.0,1818.0,134.16078186035156,3.679987668991089,34.89787673950195,Left
2579.601806640625,9993,1,1769.0,1763.0,1716.0,1763.0,1751.0,1747.0,1757.0,1669.0,134.16078186035156,3.679987668991089,34.89787673950195,Left
2581.601806640625,9993,1,1767.0,1757.0,1752.0,1739.0,1707.0,1754.0,1753.0,1849.0,134.16078186035156,3.679987668991089,34.89787673950195,Left
2583.601806640625,9993,1,1755.0,1757.0,1788.0,1764.0,1739.0,1738.0,1761.0,1609.0,134.16078186035156,3.679987668991089,34.89787673950195,Left
2585.601806640625,9993,1,1749.0,1758.0,1836.0,1769.0,1753.0,1752.0,1747.0,1725.0,134.16078186035156,3.679987668991089,34.89787673950195,Left
2593.5859375,9994,1,1756.0,1753.0,1893.0,1691.0,1753.0,1737.0,1759.0,1743.0,134.16078186035156,3.679987668991089,34.89787673950195,Left
2595.5859375,9994,1,1751.0,1756.0,1723.0,1769.0,1747.0,1750.0,1765.0,1756.0,134.16078186035156,3.679987668991089,34.89787673950195,Left
2597.5859375,9994,1,1751.0,1755.0,1553.0,1807.0,1756.0,1754.0,1757.0,1827.0,134.16078186035156,3.679987668991089,34.89787673950195,Left
2599.5859375,9994,1,1743.0,1753.0,1464.0,1765.0,1739.0,1755.0,1765.0,1677.0,134.35269165039062,3.7684805393218994,34.769718170166016,Left
2601.5859375,9994,1,1758.0,1741.0,1804.0,1754.0,1737.0,1735.0,1764.0,1671.0,134.35269165039062,3.7684805393218994,34.769718170166016,Left
2718.3818359375,9995,1,1768.0,1753.0,1997.0,1769.0,1755.0,1755.0,1764.0,2137.0,134.35269165039062,3.7684805393218994,34.769718170166016,Left
2720.3818359375,9995,1,1768.0,1755.0,1855.0,1771.0,1751.0,1753.0,1765.0,1757.0,134.35269165039062,3.7684805393218994,34.769718170166016,Left
2722.3818359375,9995,1,1766.0,1752.0,1695.0,1756.0,1735.0,1755.0,1765.0,1688.0,134.35269165039062,3.7684805393218994,34.769718170166016,Left
2724.3818359375,9995,1,1767.0,1741.0,1677.0,1751.0,1737.0,1754.0,1747.0,1605.0,134.35269165039062,3.7684805393218994,34.769718170166016,Left
2726.3818359375,9995,1,1763.0,1751.0,1721.0,1717.0,1735.0,1754.0,1757.0,1576.0,134.35269165039062,3.7684805393218994,34.769718170166016,Left
2722.294189453125,9996,1,1754.0,1757.0,1711.0,1752.0,1753.0,1753.0,1747.0,1800.0,134.35269165039062,3.7684805393218994,34.769718170166016,Left
2724.294189453125,9996,1,1737.0,1757.0,1724.0,1763.0,1751.0,1756.0,1759.0,1799.0,134.35269165039062,3.7684805393218994,34.769718170166016,Left
2726.294189453125,9996,1,1747.0,1756.0,1775.0,1749.0,1765.0,1751.0,1754.0,1836.0,134.35269165039062,3.7684805393218994,34.769718170166016,Left
2728.294189453125,9996,1,1756.0,1757.0,1861.0,1775.0,1747.0,1755.0,1763.0,1727.0,134.35269165039062,3.7684805393218994,34.769718170166016,Left
2730.294189453125,9996,1,1759.0,1741.0,1775.0,1752.0,1749.0,1737.0,1759.0,1757.0,134.35269165039062,3.7684805393218994,34.769718170166016,Left
2722.948974609375,9997,1,1765.0,1757.0,1799.0,1765.0,1751.0,1749.0,1764.0,1844.0,134.35269165039062,3.7684805393218994,34.769718170166016,Left
2724.948974609375,9997,1,1752.0,1758.0,1706.0,1751.0,1750.0,1753.0,1756.0,1582.0,134.35269165039062,3.7684805393218994,34.769718170166016,Left
2726.948974609375,9997,1,1611.0,1743.0,1733.0,1774.0,1748.0,1749.0,1765.0,1675.0,134.35269165039062,3.7684805393218994,34.769718170166016,Left
2728.948974609375,9997,1,1375.0,1758.0,1753.0,1757.0,1737.0,1755.0,1757.0,1736.0,134.35269165039062,3.7684805393218994,34.769718170166016,Left
2730.948974609375,9997,1,940.0,1757.0,1726.0,1721.0,1740.0,1749.0,1756.0,1711.0,134.35269165039062,3.7684805393218994,34.769718170166016,Left
2723.320068359375,9998,1,669.0,1753.0,1725.0,1749.0,1747.0,1737.0,1765.0,1781.0,134.35269165039062,3.7684805393218994,34.769718170166016,Left
2725.320068359375,9998,1,668.0,1753.0,1762.0,1741.0,1755.0,1754.0,1762.0,1853.0,134.35269165039062,3.7684805393218994,34.769718170166016,Left
2727.320068359375,9998,1,694.0,1751.0,1783.0,1768.0,1753.0,1753.0,1747.0,1912.0,134.35269165039062,3.7684805393218994,34.769718170166016,Left
2729.320068359375,9998,1,697.0,1755.0,1814.0,1765.0,1751.0,1757.0,1763.0,1627.0,134.35269165039062,3.7684805393218994,34.769718170166016,Left
2731.320068359375,9998,1,920.0,1755.0,1705.0,1734.0,1753.0,1750.0,1757.0,1669.0,134.35269165039062,3.7684805393218994,34.769718170166016,Left
2723.65087890625,9999,1,1122.0,1755.0,1661.0,1765.0,1753.0,1739.0,1748.0,1622.0,134.35269165039062,3.7684805393218994,34.769718170166016,Left
2725.65087890625,9999,1,1269.0,1758.0,1721.0,1773.0,1743.0,1755.0,1739.0,1673.0,134.35269165039062,3.7684805393218994,34.769718170166016,Left
2727.65087890625,9999,1,1387.0,1753.0,1815.0,1753.0,1753.0,1736.0,1763.0,1611.0,134.35269165039062,3.7684805393218994,34.769718170166016,Left
2729.65087890625,9999,1,1465.0,1757.0,1799.0,1703.0,1752.0,1752.0,1759.0,1943.0,134.35269165039062,3.7684805393218994,34.769718170166016,Left
2731.65087890625,9999,1,1547.0,1753.0,1849.0,1722.0,1753.0,1751.0,1765.0,1991.0,134.35269165039062,3.7684805393218994,34.769718170166016,Left
2723.971923828125,10000,1,1598.0,1757.0,1853.0,1804.0,1751.0,1752.0,1759.0,1903.0,134.35269165039062,3.7684805393218994,34.769718170166016,Left
2725.971923828125,10000,1,1644.0,1757.0,1769.0,1790.0,1755.0,1756.0,1765.0,1687.0,134.35269165039062,3.7684805393218994,34.769718170166016,Left
2727.971923828125,10000,1,1691.0,1745.0,1783.0,1781.0,1752.0,1753.0,1767.0,1887.0,134.35269165039062,3.7684805393218994,34.769718170166016,Left
2729.971923828125,10000,1,1723.0,1741.0,1551.0,1800.0,1751.0,1755.0,1763.0,1467.0,134.35269165039062,3.7684805393218994,34.769718170166016,Left
2731.971923828125,10000,1,1755.0,1759.0,1611.0,1739.0,1737.0,1751.0,1747.0,1675.0,134.35269165039062,3.7684805393218994,34.769718170166016,Left
2750.77099609375,10001,1,1769.0,1755.0,1733.0,1757.0,1750.0,1751.0,1762.0,1819.0,134.86585998535156,3.8409790992736816,34.96162796020508,Left
2752.77099609375,10001,1,1804.0,1761.0,1797.0,1701.0,1751.0,1747.0,1747.0,1720.0,134.86585998535156,3.8409790992736816,34.96162796020508,Left
2754.77099609375,10001,1,1812.0,1759.0,1735.0,1709.0,1734.0,1749.0,1763.0,1717.0,134.86585998535156,3.8409790992736816,34.96162796020508,Left
2756.77099609375,10001,1,1816.0,1756.0,1757.0,1747.0,1736.0,1756.0,1764.0,1629.0,134.86585998535156,3.8409790992736816,34.96162796020508,Left
2758.77099609375,10001,1,1818.0,1763.0,1767.0,1722.0,1753.0,1751.0,1767.0,1709.0,134.86585998535156,3.8409790992736816,34.96162796020508,Left
2751.402099609375,10002,1,1807.0,1749.0,1775.0,1788.0,1739.0,1753.0,1763.0,1769.0,134.86585998535156,3.8409790992736816,34.96162796020508,Left
2753.402099609375,10002,1,1819.0,1761.0,1743.0,1765.0,1752.0,1737.0,1767.0,1767.0,134.86585998535156,3.8409790992736816,34.96162796020508,Left
2755.402099609375,10002,1,1811.0,1753.0,1772.0,1753.0,1753.0,1753.0,1757.0,1798.0,134.86585998535156,3.8409790992736816,34.96162796020508,Left
2757.402099609375,10002,1,1828.0,1745.0,1779.0,1811.0,1749.0,1755.0,1763.0,1759.0,134.86585998535156,3.8409790992736816,34.96162796020508,Left
2759.402099609375,10002,1,1833.0,1757.0,1774.0,1831.0,1737.0,1751.0,1751.0,1747.0,134.86585998535156,3.8409790992736816,34.96162796020508,Left
2751.865966796875,10003,1,1845.0,1755.0,1766.0,1609.0,1753.0,1750.0,1763.0,1723.0,134.86585998535156,3.8409790992736816,34.96162796020508,Left
2753.865966796875,10003,1,1843.0,1741.0,1764.0,1725.0,1753.0,1756.0,1763.0,1749.0,134.86585998535156,3.8409790992736816,34.96162796020508,Left
2755.865966796875,10003,1,1833.0,1755.0,1823.0,1855.0,1735.0,1754.0,1759.0,1733.0,134.86585998535156,3.8409790992736816,34.96162796020508,Left
2757.865966796875,10003,1,1830.0,1753.0,1772.0,1783.0,1753.0,1749.0,1749.0,1755.0,134.86585998535156,3.8409790992736816,34.96162796020508,Left
2759.865966796875,10003,1,1834.0,1757.0,1763.0,1837.0,1736.0,1753.0,1767.0,1786.0,134.86585998535156,3.8409790992736816,34.96162796020508,Left
2752.3447265625,10004,1,1829.0,1751.0,1651.0,1843.0,1756.0,1756.0,1763.0,1723.0,134.86585998535156,3.8409790992736816,34.96162796020508,Left
2754.3447265625,10004,1,1816.0,1757.0,1675.0,1818.0,1752.0,1753.0,1759.0,1739.0,134.86585998535156,3.8409790992736816,34.96162796020508,Left
2756.3447265625,10004,1,1823.0,1755.0,1783.0,1584.0,1751.0,1751.0,1756.0,1762.0,134.86585998535156,3.8409790992736816,34.96162796020508,Left
2758.3447265625,10004,1,1829.0,1757.0,1771.0,1727.0,1751.0,1750.0,1757.0,1739.0,134.86585998535156,3.8409790992736816,34.96162796020508,Left
2760.3447265625,10004,1,1831.0,1755.0,1791.0,1685.0,1752.0,1751.0,1763.0,1789.0,134.86585998535156,3.8409790992736816,34.96162796020508,Left
2752.712890625,10005,1,1887.0,1757.0,1791.0,1711.0,1753.0,1751.0,1757.0,1753.0,134.86585998535156,3.8409790992736816,34.96162796020508,Left
2754.712890625,10005,1,1871.0,1755.0,1722.0,1776.0,1755.0,1750.0,1764.0,1711.0,134.86585998535156,3.8409790992736816,34.96162796020508,Left
2756.712890625,10005,1,1851.0,1757.0,1773.0,1873.0,1749.0,1753.0,1765.0,1749.0,134.86585998535156,3.8409790992736816,34.96162796020508,Left
2758.712890625,10005,1,1861.0,1757.0,1762.0,1611.0,1750.0,1741.0,1764.0,1706.0,134.86585998535156,3.8409790992736816,34.96162796020508,Left
2760.712890625,10005,1,1850.0,1757.0,1735.0,1639.0,1751.0,1753.0,1759.0,1739.0,134.86585998535156,3.8409790992736816,34.96162796020508,Left
2753.057861328125,10006,1,1824.0,1754.0,1785.0,2107.0,1727.0,1751.0,1767.0,1767.0,134.86585998535156,3.8409790992736816,34.96162796020508,Left
2755.057861328125,10006,1,1819.0,1757.0,1723.0,1577.0,1749.0,1757.0,1759.0,1733.0,134.86585998535156,3.8409790992736816,34.96162796020508,Left
2757.057861328125,10006,1,1817.0,1743.0,1765.0,1619.0,1757.0,1751.0,1763.0,1753.0,134.86585998535156,3.8409790992736816,34.96162796020508,Left
2759.057861328125,10006,1,1833.0,1755.0,1775.0,1594.0,1736.0,1737.0,1766.0,1740.0,134.86585998535156,3.8409790992736816,34.96162796020508,Left
2761.057861328125,10006,1,1823.0,1755.0,1779.0,2093.0,1753.0,1751.0,1765.0,1763.0,134.86585998535156,3.8409790992736816,34.96162796020508,Left
2753.587890625,10007,1,1837.0,1755.0,1735.0,2059.0,1752.0,1751.0,1758.0,1715.0,134.86585998535156,3.8409790992736816,34.96162796020508,Left
2755.587890625,10007,1,1836.0,1757.0,1752.0,1769.0,1756.0,1751.0,1762.0,1735.0,134.86585998535156,3.8409790992736816,34.96162796020508,Left
2757.587890625,10007,1,1833.0,1759.0,1765.0,1963.0,1738.0,1755.0,1757.0,1765.0,134.86585998535156,3.8409790992736816,34.96162796020508,Left
2759.587890625,10007,1,1829.0,1756.0,1771.0,1531.0,1754.0,1753.0,1766.0,1753.0,134.86585998535156,3.8409790992736816,34.96162796020508,Left
2761.587890625,10007,1,1816.0,1758.0,1737.0,1431.0,1751.0,1735.0,1757.0,1741.0,134.86585998535156,3.8409790992736816,34.96162796020508,Left
2754.06591796875,10008,1,1806.0,1756.0,1724.0,1719.0,1737.0,1751.0,1763.0,1757.0,137.30616760253906,3.5847973823547363,35.820064544677734,Left
2756.06591796875,10008,1,1789.0,1753.0,1749.0,1737.0,1748.0,1748.0,1749.0,1709.0,137.30616760253906,3.5847973823547363,35.820064544677734,Left
2758.06591796875,10008,1,1803.0,1758.0,1765.0,1903.0,1753.0,1749.0,1757.0,1719.0,137.30616760253906,3.5847973823547363,35.820064544677734,Left
2760.06591796875,10008,1,1807.0,1743.0,1823.0,1995.0,1737.0,1751.0,1764.0,1765.0,137.30616760253906,3.5847973823547363,35.820064544677734,Left
2762.06591796875,10008,1,1801.0,1753.0,1737.0,1541.0,1751.0,1748.0,1756.0,1771.0,137.30616760253906,3.5847973823547363,35.820064544677734,Left
2754.552734375,10009,1,1816.0,1754.0,1715.0,1612.0,1752.0,1756.0,1759.0,1747.0,137.30616760253906,3.5847973823547363,35.820064544677734,Left
2756.552734375,10009,1,1817.0,1756.0,1797.0,1445.0,1755.0,1737.0,1765.0,1737.0,137.30616760253906,3.5847973823547363,35.820064544677734,Left
2758.552734375,10009,1,1813.0,1753.0,1815.0,1631.0,1762.0,1750.0,1766.0,1739.0,137.30616760253906,3.5847973823547363,35.820064544677734,Left
2760.552734375,10009,1,1800.0,1757.0,1694.0,1911.0,1749.0,1755.0,1761.0,1722.0,137.30616760253906,3.5847973823547363,35.820064544677734,Left
2762.552734375,10009,1,1789.0,1759.0,1763.0,1944.0,1757.0,1750.0,1767.0,1756.0,137.30616760253906,3.5847973823547363,35.820064544677734,Left
2754.8408203125,10010,1,1780.0,1754.0,1693.0,1900.0,1753.0,1750.0,1759.0,1727.0,137.30616760253906,3.5847973823547363,35.820064544677734,Left
2756.8408203125,10010,1,778.0,1759.0,1708.0,1768.0,1756.0,1748.0,1761.0,1773.0,137.30616760253906,3.5847973823547363,35.820064544677734,Left
2758.8408203125,10010,1,933.0,1757.0,1845.0,1765.0,1759.0,1737.0,1747.0,1779.0,137.30616760253906,3.5847973823547363,35.820064544677734,Left
2760.8408203125,10010,1,1101.0,1745.0,1854.0,1995.0,1739.0,1753.0,1765.0,1752.0,137.30616760253906,3.5847973823547363,35.820064544677734,Left
2762.8408203125,10010,1,1227.0,1754.0,1651.0,1571.0,1747.0,1753.0,1765.0,1739.0,137.30616760253906,3.5847973823547363,35.820064544677734,Left
2801.76708984375,10011,1,1337.0,1756.0,1707.0,1651.0,1753.0,1755.0,1753.0,1715.0,137.30616760253906,3.5847973823547363,35.820064544677734,Left
2803.76708984375,10011,1,1403.0,1755.0,1821.0,1763.0,1751.0,1741.0,1765.0,1784.0,137.30616760253906,3.5847973823547363,35.820064544677734,Left
2805.76708984375,10011,1,1469.0,1759.0,1863.0,2075.0,1764.0,1749.0,1764.0,1747.0,137.30616760253906,3.5847973823547363,35.820064544677734,Left
2807.76708984375,10011,1,1532.0,1763.0,1705.0,2833.0,3787.0,1705.0,1755.0,1929.0,137.30616760253906,3.5847973823547363,35.820064544677734,Left
2809.76708984375,10011,1,1579.0,1725.0,1753.0,1364.0,3765.0,1695.0,1755.0,1787.0,137.30616760253906,3.5847973823547363,35.820064544677734,Left
2812.598876953125,10012,1,1619.0,1754.0,1765.0,1610.0,3775.0,1723.0,1763.0,1783.0,137.30616760253906,3.5847973823547363,35.820064544677734,Left
2814.598876953125,10012,1,1642.0,1753.0,1735.0,2065.0,3789.0,1734.0,1754.0,1623.0,137.30616760253906,3.5847973823547363,35.820064544677734,Left
2816.598876953125,10012,1,1663.0,1752.0,1582.0,1547.0,3782.0,1720.0,1763.0,1683.0,137.30616760253906,3.5847973823547363,35.820064544677734,Left
2818.598876953125,10012,1,1675.0,1757.0,1683.0,1159.0,3790.0,1723.0,1757.0,1645.0,137.30616760253906,3.5847973823547363,35.820064544677734,Left
2820.598876953125,10012,1,1699.0,1753.0,1704.0,1683.0,3765.0,1739.0,1748.0,1762.0,137.30616760253906,3.5847973823547363,35.820064544677734,Left
2813.0908203125,10013,1,1709.0,1758.0,1769.0,1801.0,3794.0,1747.0,1756.0,1809.0,137.30616760253906,3.5847973823547363,35.820064544677734,Left
2815.0908203125,10013,1,1717.0,1757.0,1815.0,1655.0,3791.0,1727.0,1759.0,1803.0,137.30616760253906,3.5847973823547363,35.820064544677734,Left
2817.0908203125,10013,1,1719.0,1743.0,1788.0,1950.0,3795.0,1741.0,1763.0,1739.0,137.30616760253906,3.5847973823547363,35.820064544677734,Left
2819.0908203125,10013,1,1728.0,1758.0,1785.0,1997.0,3795.0,1747.0,1763.0,1737.0,137.30616760253906,3.5847973823547363,35.820064544677734,Left
2821.0908203125,10013,1,1737.0,1743.0,1803.0,1639.0,3796.0,1737.0,1759.0,1789.0,137.30616760253906,3.5847973823547363,35.820064544677734,Left
2813.418212890625,10014,1,1742.0,1757.0,1739.0,1723.0,3789.0,1741.0,1763.0,1763.0,137.30616760253906,3.5847973823547363,35.820064544677734,Left
2815.418212890625,10014,1,1747.0,1755.0,1722.0,2101.0,3801.0,1750.0,1759.0,1689.0,139.40859985351562,2.6616101264953613,36.70151138305664,Left
2817.418212890625,10014,1,1749.0,1753.0,1768.0,1725.0,3794.0,1751.0,1756.0,1740.0,139.40859985351562,2.6616101264953613,36.70151138305664,Left
2819.418212890625,10014,1,1750.0,1762.0,1711.0,1909.0,3787.0,1751.0,1763.0,1779.0,139.40859985351562,2.6616101264953613,36.70151138305664,Left
2821.418212890625,10014,1,1751.0,1761.0,1811.0,1736.0,3793.0,1753.0,1763.0,1831.0,139.40859985351562,2.6616101264953613,36.70151138305664,Left
2813.8369140625,10015,1,1738.0,3771.0,1813.0,2171.0,3769.0,1753.0,1747.0,1707.0,139.40859985351562,2.6616101264953613,36.70151138305664,Left
2815.8369140625,10015,1,1752.0,3799.0,1709.0,1661.0,3795.0,1739.0,1763.0,1711.0,139.40859985351562,2.6616101264953613,36.70151138305664,Left
2817.8369140625,10015,1,1741.0,3803.0,1789.0,1147.0,3790.0,1735.0,1759.0,1755.0,139.40859985351562,2.6616101264953613,36.70151138305664,Left
2819.8369140625,10015,1,1755.0,3775.0,1757.0,1583.0,3427.0,1755.0,1757.0,1721.0,139.40859985351562,2.6616101264953613,36.70151138305664,Left
2821.8369140625,10015,1,1745.0,3800.0,1720.0,2601.0,3095.0,1753.0,1757.0,1827.0,139.40859985351562,2.6616101264953613,36.70151138305664,Left
2816.65283203125,10016,1,1752.0,3804.0,1719.0,1479.0,2797.0,1737.0,1763.0,1640.0,139.40859985351562,2.6616101264953613,36.70151138305664,Left
2818.65283203125,10016,1,1757.0,3804.0,1683.0,1807.0,2636.0,1755.0,1755.0,1772.0,139.40859985351562,2.6616101264953613,36.70151138305664,Left
2820.65283203125,10016,1,1757.0,3794.0,1807.0,1245.0,2507.0,1737.0,1763.0,1739.0,139.40859985351562,2.6616101264953613,36.70151138305664,Left
2822.65283203125,10016,1,1758.0,3797.0,1740.0,1875.0,2333.0,1752.0,1747.0,1719.0,139.40859985351562,2.6616101264953613,36.70151138305664,Left
2824.65283203125,10016,1,1759.0,3801.0,1747.0,2083.0,2237.0,1753.0,1759.0,1773.0,139.40859985351562,2.6616101264953613,36.70151138305664,Left
2816.995849609375,10017,1,1755.0,3795.0,1807.0,1753.0,2156.0,1750.0,1746.0,1759.0,139.40859985351562,2.6616101264953613,36.70151138305664,Left
2818.995849609375,10017,1,1752.0,3801.0,1774.0,1626.0,2089.0,1737.0,1763.0,1725.0,139.40859985351562,2.6616101264953613,36.70151138305664,Left
2820.995849609375,10017,1,1759.0,3799.0,1647.0,1827.0,2025.0,1756.0,1763.0,1753.0,139.40859985351562,2.6616101264953613,36.70151138305664,Left
2822.995849609375,10017,1,1755.0,3805.0,1578.0,1797.0,1983.0,1755.0,1757.0,1739.0,139.40859985351562,2.6616101264953613,36.70151138305664,Left
2824.995849609375,10017,1,1762.0,3783.0,1819.0,2193.0,1949.0,1738.0,1759.0,1707.0,139.40859985351562,2.6616101264953613,36.70151138305664,Left
2827.283203125,10018,1,1757.0,3819.0,1913.0,1647.0,1913.0,1755.0,1765.0,1774.0,139.40859985351562,2.6616101264953613,36.70151138305664,Left
2829.283203125,10018,1,1759.0,3803.0,1878.0,959.0,1886.0,1739.0,1767.0,1893.0,139.40859985351562,2.6616101264953613,36.70151138305664,Left
2831.283203125,10018,1,1756.0,3801.0,1899.0,1483.0,1865.0,1747.0,2393.0,1940.0,139.40859985351562,2.6616101264953613,36.70151138305664,Left
2833.283203125,10018,1,1759.0,3783.0,1779.0,1493.0,1836.0,1754.0,1653.0,1765.0,139.40859985351562,2.6616101264953613,36.70151138305664,Left
2835.283203125,10018,1,1748.0,3807.0,1613.0,2549.0,1823.0,1737.0,1639.0,1515.0,139.40859985351562,2.6616101264953613,36.70151138305664,Left
2861.889892578125,10019,1,1756.0,3859.0,1699.0,1791.0,1822.0,1753.0,1676.0,1571.0,139.40859985351562,2.6616101264953613,36.70151138305664,Left
2863.889892578125,10019,1,1755.0,3736.0,1683.0,1909.0,1816.0,1756.0,1690.0,1405.0,139.40859985351562,2.6616101264953613,36.70151138305664,Left
2865.889892578125,10019,1,1746.0,3283.0,1752.0,1657.0,1807.0,1750.0,1707.0,1847.0,139.40859985351562,2.6616101264953613,36.70151138305664,Left
2867.889892578125,10019,1,1757.0,2972.0,1453.0,1596.0,1803.0,1737.0,1707.0,1735.0,139.40859985351562,2.6616101264953613,36.70151138305664,Left
2869.889892578125,10019,1,1757.0,2761.0,1661.0,1823.0,1791.0,1739.0,1723.0,1763.0,139.40859985351562,2.6616101264953613,36.70151138305664,Left
2873.81591796875,10020,1,1755.0,2567.0,1947.0,2021.0,1788.0,1752.0,1738.0,1868.0,139.40859985351562,2.6616101264953613,36.70151138305664,Left
2875.81591796875,10020,1,1747.0,2443.0,1925.0,2365.0,1783.0,1737.0,1727.0,2015.0,139.40859985351562,2.6616101264953613,36.70151138305664,Left
2877.81591796875,10020,1,1757.0,2325.0,1944.0,1173.0,1782.0,1751.0,1748.0,1928.0,139.40859985351562,2.6616101264953613,36.70151138305664,Left
2879.81591796875,10020,1,1758.0,2231.0,1739.0,1682.0,1779.0,1747.0,1749.0,1741.0,145.568359375,3.6793875694274902,43.565650939941406,Left
2881.81591796875,10020,1,1755.0,2153.0,1725.0,1593.0,1778.0,1738.0,1750.0,1428.0,145.568359375,3.6793875694274902,43.565650939941406,Left
3160.818115234375,10021,1,1755.0,2071.0,1678.0,1913.0,1773.0,1753.0,1753.0,1748.0,145.568359375,3.6793875694274902,43.565650939941406,Left
3162.818115234375,10021,1,1747.0,2029.0,1707.0,2221.0,1769.0,1757.0,1759.0,1815.0,145.568359375,3.6793875694274902,43.565650939941406,Left
3164.818115234375,10021,1,1762.0,1992.0,1978.0,1653.0,1773.0,1727.0,1761.0,1867.0,145.568359375,3.6793875694274902,43.565650939941406,Left
3166.818115234375,10021,1,1749.0,1947.0,1768.0,1871.0,1752.0,1735.0,1761.0,1798.0,145.568359375,3.6793875694274902,43.565650939941406,Left
3168.818115234375,10021,1,1757.0,1915.0,1677.0,2163.0,1772.0,1748.0,1763.0,1767.0,145.568359375,3.6793875694274902,43.565650939941406,Left
3161.333984375,10022,1,1747.0,1891.0,1548.0,477.0,1763.0,1751.0,1752.0,1644.0,145.568359375,3.6793875694274902,43.565650939941406,Left
3163.333984375,10022,1,1757.0,1877.0,1561.0,2021.0,1759.0,1749.0,1758.0,1691.0,145.568359375,3.6793875694274902,43.565650939941406,Left
3165.333984375,10022,1,1755.0,1863.0,1867.0,2399.0,1768.0,1751.0,1755.0,1875.0,145.568359375,3.6793875694274902,43.565650939941406,Left
3167.333984375,10022,1,1749.0,1847.0,1915.0,1719.0,1767.0,1753.0,1758.0,1741.0,145.568359375,3.6793875694274902,43.565650939941406,Left
3169.333984375,10022,1,1749.0,1831.0,1752.0,1471.0,1763.0,1751.0,1756.0,1761.0,145.568359375,3.6793875694274902,43.565650939941406,Left
3161.85888671875,10023,1,1762.0,1818.0,1708.0,1983.0,1759.0,1736.0,1764.0,1749.0,145.568359375,3.6793875694274902,43.565650939941406,Left
3163.85888671875,10023,1,1757.0,1811.0,1735.0,1699.0,1765.0,1754.0,1746.0,1770.0,145.568359375,3.6793875694274902,43.565650939941406,Left
3165.85888671875,10023,1,1755.0,1812.0,1721.0,2072.0,1757.0,1750.0,1764.0,1813.0,145.568359375,3.6793875694274902,43.565650939941406,Left
3167.85888671875,10023,1,1755.0,1799.0,1765.0,2143.0,1749.0,1748.0,1751.0,1769.0,145.568359375,3.6793875694274902,43.565650939941406,Left
3169.85888671875,10023,1,1757.0,1780.0,1817.0,1343.0,1756.0,1752.0,1756.0,1754.0,145.568359375,3.6793875694274902,43.565650939941406,Left
3162.246826171875,10024,1,1756.0,1784.0,1907.0,1651.0,1763.0,1751.0,1749.0,1743.0,145.568359375,3.6793875694274902,43.565650939941406,Left
3164.246826171875,10024,1,1757.0,1791.0,1865.0,1949.0,1763.0,1753.0,1757.0,1620.0,145.568359375,3.6793875694274902,43.565650939941406,Left
3166.246826171875,10024,1,1757.0,1785.0,1690.0,1881.0,1767.0,1749.0,1756.0,1813.0,145.568359375,3.6793875694274902,43.565650939941406,Left
3168.246826171875,10024,1,1763.0,1779.0,1816.0,1675.0,1759.0,1737.0,1763.0,1951.0,145.568359375,3.6793875694274902,43.565650939941406,Left
3170.246826171875,10024,1,1755.0,1782.0,1688.0,1519.0,1765.0,1753.0,1753.0,1889.0,145.568359375,3.6793875694274902,43.565650939941406,Left
3162.64208984375,10025,1,1763.0,1762.0,1606.0,1720.0,1757.0,1783.0,1757.0,1643.0,145.568359375,3.6793875694274902,43.565650939941406,Left
3164.64208984375,10025,1,1755.0,1773.0,1653.0,1543.0,1757.0,1791.0,1763.0,1581.0,145.568359375,3.6793875694274902,43.565650939941406,Left
3166.64208984375,10025,1,1749.0,1779.0,1704.0,2219.0,1759.0,1783.0,1763.0,1607.0,145.568359375,3.6793875694274902,43.565650939941406,Left
3168.64208984375,10025,1,1763.0,1772.0,1763.0,1577.0,1763.0,1765.0,1763.0,1797.0,145.568359375,3.6793875694274902,43.565650939941406,Left
3170.64208984375,10025,1,1759.0,1773.0,1786.0,1462.0,1759.0,1759.0,1759.0,1849.0,145.568359375,3.6793875694274902,43.565650939941406,Left
3163.14990234375,10026,1,1759.0,1767.0,1898.0,2203.0,1763.0,1735.0,1763.0,1785.0,145.568359375,3.6793875694274902,43.565650939941406,Left
3165.14990234375,10026,1,1757.0,1775.0,1837.0,1803.0,1753.0,1745.0,1747.0,1752.0,145.568359375,3.6793875694274902,43.565650939941406,Left
3167.14990234375,10026,1,1754.0,1756.0,1803.0,1436.0,1765.0,1752.0,1759.0,1773.0,145.568359375,3.6793875694274902,43.565650939941406,Left
3169.14990234375,10026,1,1763.0,1768.0,1800.0,1747.0,1757.0,1773.0,1764.0,1786.0,145.568359375,3.6793875694274902,43.565650939941406,Left
3171.14990234375,10026,1,1749.0,1755.0,1843.0,1683.0,1743.0,1781.0,1763.0,1737.0,145.568359375,3.6793875694274902,43.565650939941406,Left
3163.57421875,10027,1,1753.0,1786.0,1331.0,1897.0,1757.0,1789.0,1763.0,1672.0,145.568359375,3.6793875694274902,43.565650939941406,Left
3165.57421875,10027,1,1759.0,1753.0,1773.0,1709.0,1757.0,1786.0,1759.0,1748.0,144.41136169433594,2.9573371410369873,51.01094436645508,Left
3167.57421875,10027,1,1756.0,1767.0,1821.0,1769.0,1758.0,1753.0,1765.0,1741.0,144.41136169433594,2.9573371410369873,51.01094436645508,Left
3169.57421875,10027,1,1759.0,1771.0,1767.0,1589.0,1753.0,1735.0,1759.0,1674.0,144.41136169433594,2.9573371410369873,51.01094436645508,Left
3171.57421875,10027,1,1757.0,1771.0,1900.0,1939.0,1757.0,1721.0,1758.0,1829.0,144.41136169433594,2.9573371410369873,51.01094436645508,Left
3164.168212890625,10028,1,1756.0,1775.0,1708.0,1883.0,1741.0,1689.0,1743.0,1751.0,144.41136169433594,2.9573371410369873,51.01094436645508,Left
3166.168212890625,10028,1,1758.0,1752.0,1650.0,2125.0,1764.0,1716.0,1764.0,1689.0,144.41136169433594,2.9573371410369873,51.01094436645508,Left
3168.168212890625,10028,1,1755.0,1769.0,1869.0,1319.0,1759.0,1707.0,1765.0,1997.0,144.41136169433594,2.9573371410369873,51.01094436645508,Left
3170.168212890625,10028,1,1759.0,1768.0,1773.0,2095.0,1757.0,1725.0,1763.0,1711.0,144.41136169433594,2.9573371410369873,51.01094436645508,Left
3172.168212890625,10028,1,1756.0,1764.0,1517.0,1519.0,1757.0,1759.0,1746.0,1655.0,144.41136169433594,2.9573371410369873,51.01094436645508,Left
3164.64501953125,10029,1,1750.0,1757.0,1783.0,1675.0,1757.0,1763.0,1763.0,1554.0,144.41136169433594,2.9573371410369873,51.01094436645508,Left
3166.64501953125,10029,1,1747.0,1763.0,1725.0,1816.0,1755.0,1764.0,1763.0,1709.0,144.41136169433594,2.9573371410369873,51.01094436645508,Left
3168.64501953125,10029,1,1755.0,1766.0,1724.0,1675.0,1749.0,1745.0,1758.0,1736.0,144.41136169433594,2.9573371410369873,51.01094436645508,Left
3170.64501953125,10029,1,1757.0,1764.0,1821.0,1699.0,1756.0,1725.0,1758.0,1821.0,144.41136169433594,2.9573371410369873,51.01094436645508,Left
3172.64501953125,10029,1,1759.0,1767.0,1791.0,2025.0,1754.0,1733.0,1753.0,1901.0,144.41136169433594,2.9573371410369873,51.01094436645508,Left
3165.185302734375,10030,1,1748.0,1755.0,1669.0,1993.0,1743.0,1735.0,1757.0,1811.0,144.41136169433594,2.9573371410369873,51.01094436645508,Left
3167.185302734375,10030,1,1756.0,1767.0,1736.0,1561.0,1763.0,1739.0,1767.0,1812.0,144.41136169433594,2.9573371410369873,51.01094436645508,Left
3169.185302734375,10030,1,1757.0,1765.0,1779.0,1477.0,1757.0,1741.0,1765.0,1765.0,144.41136169433594,2.9573371410369873,51.01094436645508,Left
3171.185302734375,10030,1,1759.0,1749.0,1787.0,1893.0,1753.0,1749.0,1764.0,1757.0,144.41136169433594,2.9573371410369873,51.01094436645508,Left
3173.185302734375,10030,1,1749.0,1767.0,1762.0,1629.0,1755.0,1740.0,1764.0,1752.0,144.41136169433594,2.9573371410369873,51.01094436645508,Left
3165.70703125,10031,1,1753.0,1764.0,1815.0,1991.0,1757.0,1747.0,1757.0,1783.0,144.41136169433594,2.9573371410369873,51.01094436645508,Left
3167.70703125,10031,1,1756.0,1757.0,1720.0,1706.0,1759.0,1742.0,1756.0,1712.0,144.41136169433594,2.9573371410369873,51.01094436645508,Left
3169.70703125,10031,1,1763.0,1751.0,1647.0,1755.0,1759.0,1747.0,1747.0,1739.0,144.41136169433594,2.9573371410369873,51.01094436645508,Left
3171.70703125,10031,1,1751.0,1751.0,1721.0,1588.0,1758.0,1737.0,1763.0,1723.0,144.41136169433594,2.9573371410369873,51.01094436645508,Left
3173.70703125,10031,1,1749.0,1767.0,1824.0,1765.0,1747.0,1735.0,1755.0,1709.0,144.41136169433594,2.9573371410369873,51.01094436645508,Left
3166.027099609375,10032,1,1749.0,1767.0,1753.0,1807.0,1758.0,1751.0,1759.0,1781.0,144.41136169433594,2.9573371410369873,51.01094436645508,Left
3168.027099609375,10032,1,1759.0,1765.0,1629.0,1490.0,1759.0,1751.0,1759.0,1711.0,144.41136169433594,2.9573371410369873,51.01094436645508,Left
3170.027099609375,10032,1,1757.0,1767.0,1801.0,2205.0,1755.0,1748.0,1755.0,1817.0,144.41136169433594,2.9573371410369873,51.01094436645508,Left
3172.027099609375,10032,1,1755.0,1751.0,1845.0,1516.0,1753.0,1754.0,1751.0,1816.0,144.41136169433594,2.9573371410369873,51.01094436645508,Left
3174.027099609375,10032,1,1758.0,1748.0,1831.0,1635.0,1751.0,1747.0,1763.0,1819.0,144.41136169433594,2.9573371410369873,51.01094436645508,Left
3166.3388671875,10033,1,1756.0,1739.0,1811.0,1855.0,1755.0,1736.0,1759.0,1655.0,144.41136169433594,2.9573371410369873,51.01094436645508,Left
3168.3388671875,10033,1,1761.0,1763.0,1557.0,1641.0,1756.0,1751.0,1763.0,1591.0,144.41136169433594,2.9573371410369873,51.01094436645508,Left
3170.3388671875,10033,1,1763.0,1756.0,1571.0,1770.0,1755.0,1753.0,1751.0,1519.0,144.41136169433594,2.9573371410369873,51.01094436645508,Left
3172.3388671875,10033,1,1757.0,1765.0,1662.0,1815.0,1757.0,1748.0,1751.0,1877.0,140.6898193359375,2.1304702758789062,53.05009078979492,Left
3174.3388671875,10033,1,1759.0,1767.0,1839.0,1797.0,1753.0,1755.0,1759.0,1907.0,140.6898193359375,2.1304702758789062,53.05009078979492,Left
3166.6357421875,10034,1,1757.0,1765.0,1847.0,1699.0,1757.0,1749.0,1763.0,1789.0,140.6898193359375,2.1304702758789062,53.05009078979492,Left
3168.6357421875,10034,1,1751.0,1765.0,1691.0,1764.0,1755.0,1747.0,1755.0,1716.0,140.6898193359375,2.1304702758789062,53.05009078979492,Left
3170.6357421875,10034,1,1749.0,1748.0,1767.0,1705.0,1758.0,1752.0,1741.0,1757.0,140.6898193359375,2.1304702758789062,53.05009078979492,Left
3172.6357421875,10034,1,1763.0,1757.0,1853.0,1948.0,1755.0,1755.0,1753.0,1773.0,140.6898193359375,2.1304702758789062,53.05009078979492,Left
3174.6357421875,10034,1,1755.0,1764.0,1803.0,1596.0,1741.0,1753.0,1757.0,1720.0,140.6898193359375,2.1304702758789062,53.05009078979492,Left
3166.9453125,10035,1,1756.0,1763.0,1696.0,1991.0,1755.0,1751.0,1762.0,1750.0,140.6898193359375,2.1304702758789062,53.05009078979492,Left
3168.9453125,10035,1,1759.0,1757.0,1881.0,1811.0,1759.0,1752.0,1763.0,1803.0,140.6898193359375,2.1304702758789062,53.05009078979492,Left
3170.9453125,10035,1,1755.0,1763.0,1771.0,1599.0,1755.0,1747.0,1763.0,1765.0,140.6898193359375,2.1304702758789062,53.05009078979492,Left
3172.9453125,10035,1,1757.0,1759.0,1771.0,1774.0,1740.0,1740.0,1761.0,1725.0,140.6898193359375,2.1304702758789062,53.05009078979492,Left
3174.9453125,10035,1,1757.0,1759.0,1533.0,1871.0,1757.0,1753.0,1757.0,1579.0,140.6898193359375,2.1304702758789062,53.05009078979492,Left
3167.251953125,10036,1,1763.0,1756.0,1511.0,1674.0,1756.0,1751.0,1765.0,1617.0,140.6898193359375,2.1304702758789062,53.05009078979492,Left
3169.251953125,10036,1,1747.0,1767.0,1844.0,1654.0,1759.0,1751.0,1765.0,1843.0,140.6898193359375,2.1304702758789062,53.05009078979492,Left
3171.251953125,10036,1,1755.0,1763.0,1833.0,2039.0,1753.0,1739.0,1757.0,1791.0,140.6898193359375,2.1304702758789062,53.05009078979492,Left
3173.251953125,10036,1,1759.0,1759.0,1733.0,1571.0,1754.0,1768.0,1759.0,1757.0,140.6898193359375,2.1304702758789062,53.05009078979492,Left
3175.251953125,10036,1,1759.0,1759.0,1787.0,1431.0,1751.0,1789.0,1747.0,1811.0,140.6898193359375,2.1304702758789062,53.05009078979492,Left
3167.5478515625,10037,1,1758.0,1748.0,1910.0,1637.0,1739.0,1799.0,1741.0,1763.0,140.6898193359375,2.1304702758789062,53.05009078979492,Left
3169.5478515625,10037,1,1756.0,1758.0,1939.0,1803.0,1755.0,1787.0,1765.0,1753.0,140.6898193359375,2.1304702758789062,53.05009078979492,Left
3171.5478515625,10037,1,1757.0,1748.0,1575.0,1885.0,1759.0,1771.0,1765.0,1709.0,140.6898193359375,2.1304702758789062,53.05009078979492,Left
3173.5478515625,10037,1,1763.0,1764.0,1783.0,1703.0,1759.0,1741.0,1757.0,1737.0,140.6898193359375,2.1304702758789062,53.05009078979492,Left
3175.5478515625,10037,1,1757.0,1755.0,1734.0,1785.0,1752.0,1705.0,1763.0,1721.0,140.6898193359375,2.1304702758789062,53.05009078979492,Left
3167.80615234375,10038,1,1757.0,1755.0,1831.0,1949.0,1758.0,1708.0,1763.0,1747.0,140.6898193359375,2.1304702758789062,53.05009078979492,Left
3169.80615234375,10038,1,1747.0,1757.0,1709.0,1663.0,1754.0,1737.0,1757.0,1737.0,140.6898193359375,2.1304702758789062,53.05009078979492,Left
3171.80615234375,10038,1,1763.0,1763.0,1753.0,1701.0,1755.0,1739.0,1764.0,1799.0,140.6898193359375,2.1304702758789062,53.05009078979492,Left
3173.80615234375,10038,1,1747.0,1745.0,1783.0,2211.0,1749.0,1741.0,1757.0,1815.0,140.6898193359375,2.1304702758789062,53.05009078979492,Left
3175.80615234375,10038,1,1758.0,1757.0,1701.0,1739.0,1755.0,1757.0,1762.0,1637.0,140.6898193359375,2.1304702758789062,53.05009078979492,Left
3168.052001953125,10039,1,1753.0,1757.0,1773.0,1463.0,1758.0,1765.0,1765.0,1869.0,140.6898193359375,2.1304702758789062,53.05009078979492,Left
3170.052001953125,10039,1,1749.0,1759.0,1788.0,1783.0,1757.0,1765.0,1751.0,1815.0,140.6898193359375,2.1304702758789062,53.05009078979492,Left
3172.052001953125,10039,1,1762.0,1747.0,1797.0,1757.0,1755.0,1748.0,1759.0,1735.0,140.6898193359375,2.1304702758789062,53.05009078979492,Left
3174.052001953125,10039,1,1749.0,1758.0,1741.0,1767.0,1756.0,1733.0,1753.0,1684.0,140.6898193359375,2.1304702758789062,53.05009078979492,Left
3176.052001953125,10039,1,1763.0,1763.0,1684.0,2170.0,1747.0,1721.0,1747.0,1613.0,140.6898193359375,2.1304702758789062,53.05009078979492,Left
3168.294921875,10040,1,1758.0,1755.0,1691.0,1271.0,1738.0,1725.0,1762.0,1657.0,140.0056915283203,2.019132137298584,53.58369445800781,Left
3170.294921875,10040,1,1762.0,1751.0,1853.0,1671.0,1755.0,1724.0,1754.0,1939.0,140.0056915283203,2.019132137298584,53.58369445800781,Left
3172.294921875,10040,1,1756.0,1759.0,1803.0,1791.0,1751.0,1748.0,1763.0,1873.0,140.0056915283203,2.019132137298584,53.58369445800781,Left
3174.294921875,10040,1,1748.0,1762.0,1676.0,1747.0,1753.0,1749.0,1749.0,1673.0,140.0056915283203,2.019132137298584,53.58369445800781,Left
3176.294921875,10040,1,1759.0,1759.0,1583.0,1925.0,1751.0,1773.0,1766.0,1724.0,140.0056915283203,2.019132137298584,53.58369445800781,Left
3168.5390625,10041,1,1762.0,1761.0,1797.0,1911.0,1753.0,1783.0,1747.0,1789.0,140.0056915283203,2.019132137298584,53.58369445800781,Left
3170.5390625,10041,1,1756.0,1764.0,1912.0,1598.0,1753.0,1779.0,1757.0,1797.0,140.0056915283203,2.019132137298584,53.58369445800781,Left
3172.5390625,10041,1,1759.0,1758.0,1719.0,1721.0,1757.0,1767.0,1755.0,1785.0,140.0056915283203,2.019132137298584,53.58369445800781,Left
3174.5390625,10041,1,1756.0,1761.0,1659.0,1831.0,1741.0,1750.0,1764.0,1703.0,140.0056915283203,2.019132137298584,53.58369445800781,Left
3176.5390625,10041,1,1759.0,1767.0,1839.0,1843.0,1755.0,1736.0,1755.0,1720.0,140.0056915283203,2.019132137298584,53.58369445800781,Left
3168.921875,10042,1,1758.0,1755.0,1787.0,1587.0,1753.0,1723.0,1758.0,1734.0,140.0056915283203,2.019132137298584,53.58369445800781,Left
3170.921875,10042,1,1761.0,1758.0,1703.0,1867.0,1743.0,1736.0,1766.0,1783.0,140.0056915283203,2.019132137298584,53.58369445800781,Left
3172.921875,10042,1,1762.0,1749.0,1741.0,1803.0,1739.0,1765.0,1767.0,1764.0,140.0056915283203,2.019132137298584,53.58369445800781,Left
3174.921875,10042,1,1757.0,1763.0,1691.0,1990.0,1741.0,1765.0,1759.0,1735.0,140.0056915283203,2.019132137298584,53.58369445800781,Left
3176.921875,10042,1,1763.0,1758.0,1771.0,1609.0,1739.0,1783.0,1761.0,1763.0,140.0056915283203,2.019132137298584,53.58369445800781,Left
3169.2041015625,10043,1,1763.0,1767.0,1720.0,1770.0,1757.0,1763.0,1763.0,1755.0,140.0056915283203,2.019132137298584,53.58369445800781,Left
3171.2041015625,10043,1,1763.0,1763.0,1789.0,1882.0,1753.0,1757.0,1765.0,1753.0,140.0056915283203,2.019132137298584,53.58369445800781,Left
3173.2041015625,10043,1,1749.0,1765.0,1751.0,1395.0,1753.0,1753.0,1765.0,1751.0,140.0056915283203,2.019132137298584,53.58369445800781,Left
3175.2041015625,10043,1,1759.0,1745.0,1741.0,1786.0,1753.0,1741.0,1767.0,1679.0,140.0056915283203,2.019132137298584,53.58369445800781,Left
3177.2041015625,10043,1,1756.0,1749.0,1755.0,1829.0,1753.0,1727.0,1746.0,1771.0,140.0056915283203,2.019132137298584,53.58369445800781,Left
3169.4482421875,10044,1,1747.0,1761.0,1836.0,1821.0,1739.0,1717.0,1765.0,1754.0,140.0056915283203,2.019132137298584,53.58369445800781,Left
3171.4482421875,10044,1,1759.0,1757.0,1847.0,1944.0,1757.0,1727.0,1763.0,1867.0,140.0056915283203,2.019132137298584,53.58369445800781,Left
3173.4482421875,10044,1,1763.0,1764.0,1769.0,1436.0,1752.0,1741.0,1763.0,1843.0,140.0056915283203,2.019132137298584,53.58369445800781,Left
3175.4482421875,10044,1,1754.0,1747.0,1673.0,1755.0,1758.0,1757.0,1757.0,1719.0,140.0056915283203,2.019132137298584,53.58369445800781,Left
3177.4482421875,10044,1,1757.0,1751.0,1885.0,1812.0,1758.0,1772.0,1749.0,1629.0,140.0056915283203,2.019132137298584,53.58369445800781,Left
3169.692138671875,10045,1,1748.0,1755.0,1566.0,1916.0,1755.0,1781.0,1757.0,1606.0,140.0056915283203,2.019132137298584,53.58369445800781,Left
3171.692138671875,10045,1,1749.0,1757.0,1704.0,1743.0,1755.0,1752.0,1765.0,1799.0,140.0056915283203,2.019132137298584,53.58369445800781,Left
3173.692138671875,10045,1,1758.0,1756.0,1813.0,1689.0,1739.0,1756.0,1765.0,1761.0,140.0056915283203,2.019132137298584,53.58369445800781,Left
3175.692138671875,10045,1,1759.0,1755.0,1564.0,1929.0,1739.0,1740.0,1759.0,1717.0,140.0056915283203,2.019132137298584,53.58369445800781,Left
3177.692138671875,10045,1,1757.0,1755.0,1736.0,1927.0,1754.0,1719.0,1755.0,1755.0,140.0056915283203,2.019132137298584,53.58369445800781,Left
3169.93798828125,10046,1,1749.0,1757.0,1718.0,1525.0,1756.0,1719.0,1758.0,1799.0,140.0056915283203,2.019132137298584,53.58369445800781,Left
3171.93798828125,10046,1,1755.0,1763.0,1910.0,1529.0,1751.0,1719.0,1765.0,1383.0,140.0056915283203,2.019132137298584,53.58369445800781,Left
3173.93798828125,10046,1,1761.0,1741.0,1699.0,1733.0,1754.0,1741.0,1757.0,1766.0,139.04043579101562,1.376459002494812,53.75800323486328,Left
3175.93798828125,10046,1,1763.0,1757.0,1949.0,1832.0,1753.0,1759.0,1757.0,1869.0,139.04043579101562,1.376459002494812,53.75800323486328,Left
3177.93798828125,10046,1,1749.0,1759.0,1791.0,1662.0,1739.0,1763.0,1758.0,1809.0,139.04043579101562,1.376459002494812,53.75800323486328,Left
3170.18505859375,10047,1,1747.0,1759.0,1736.0,1805.0,1755.0,1782.0,1757.0,1784.0,139.04043579101562,1.376459002494812,53.75800323486328,Left
3172.18505859375,10047,1,1747.0,1763.0,1837.0,1961.0,1738.0,1765.0,1752.0,1767.0,139.04043579101562,1.376459002494812,53.75800323486328,Left
3174.18505859375,10047,1,1759.0,1749.0,1701.0,1863.0,1739.0,1747.0,1765.0,1757.0,139.04043579101562,1.376459002494812,53.75800323486328,Left
3176.18505859375,10047,1,1763.0,1749.0,1643.0,1625.0,1758.0,1724.0,1757.0,1763.0,139.04043579101562,1.376459002494812,53.75800323486328,Left
3178.18505859375,10047,1,1746.0,1758.0,1765.0,2021.0,1745.0,1723.0,1756.0,1683.0,139.04043579101562,1.376459002494812,53.75800323486328,Left
3170.428955078125,10048,1,1755.0,1755.0,1703.0,1339.0,1752.0,1717.0,1765.0,1749.0,139.04043579101562,1.376459002494812,53.75800323486328,Left
3172.428955078125,10048,1,1757.0,1763.0,1815.0,1972.0,1755.0,1736.0,1765.0,1719.0,139.04043579101562,1.376459002494812,53.75800323486328,Left
3174.428955078125,10048,1,1757.0,1758.0,1739.0,1595.0,1753.0,1747.0,1758.0,1757.0,139.04043579101562,1.376459002494812,53.75800323486328,Left
3176.428955078125,10048,1,1756.0,1742.0,1763.0,1775.0,1756.0,1766.0,1763.0,1735.0,139.04043579101562,1.376459002494812,53.75800323486328,Left
3178.428955078125,10048,1,1747.0,1757.0,1661.0,1589.0,1753.0,1753.0,1747.0,1816.0,139.04043579101562,1.376459002494812,53.75800323486328,Left
3170.674072265625,10049,1,1757.0,1764.0,1789.0,1897.0,1754.0,1765.0,1749.0,1787.0,139.04043579101562,1.376459002494812,53.75800323486328,Left
3172.674072265625,10049,1,1763.0,1757.0,1788.0,2072.0,1754.0,1741.0,1757.0,1749.0,139.04043579101562,1.376459002494812,53.75800323486328,Left
3174.674072265625,10049,1,1755.0,1754.0,1822.0,1635.0,1753.0,1746.0,1757.0,1743.0,139.04043579101562,1.376459002494812,53.75800323486328,Left
3176.674072265625,10049,1,1763.0,1759.0,1763.0,1821.0,1753.0,1739.0,1762.0,1708.0,139.04043579101562,1.376459002494812,53.75800323486328,Left
3178.674072265625,10049,1,1749.0,1755.0,1647.0,1783.0,1757.0,1736.0,1753.0,1709.0,139.04043579101562,1.376459002494812,53.75800323486328,Left
3293.3349609375,10050,1,1759.0,1758.0,1765.0,1755.0,1737.0,1736.0,1765.0,1757.0,139.04043579101562,1.376459002494812,53.75800323486328,Left
3295.3349609375,10050,1,1753.0,1754.0,1749.0,1747.0,1751.0,1737.0,1763.0,1736.0,139.04043579101562,1.376459002494812,53.75800323486328,Left
3297.3349609375,10050,1,1759.0,1741.0,1699.0,1890.0,1755.0,1751.0,1757.0,1832.0,139.04043579101562,1.376459002494812,53.75800323486328,Left
3299.3349609375,10050,1,1747.0,1759.0,1763.0,1720.0,1751.0,1767.0,1763.0,1717.0,139.04043579101562,1.376459002494812,53.75800323486328,Left
3301.3349609375,10050,1,1749.0,1762.0,1771.0,1803.0,1750.0,1755.0,1763.0,1641.0,139.04043579101562,1.376459002494812,53.75800323486328,Left
3294.11474609375,10051,1,1755.0,1763.0,1815.0,1810.0,1753.0,1765.0,1765.0,1807.0,139.04043579101562,1.376459002494812,53.75800323486328,Left
3296.11474609375,10051,1,1756.0,1755.0,1755.0,1695.0,1755.0,1757.0,1758.0,1779.0,139.04043579101562,1.376459002494812,53.75800323486328,Left
3298.11474609375,10051,1,1758.0,1755.0,1741.0,1780.0,1753.0,1755.0,1746.0,1739.0,139.04043579101562,1.376459002494812,53.75800323486328,Left
3300.11474609375,10051,1,1758.0,1762.0,1767.0,1789.0,1753.0,1743.0,1764.0,1805.0,139.04043579101562,1.376459002494812,53.75800323486328,Left
3302.11474609375,10051,1,1763.0,1759.0,1721.0,1963.0,1748.0,1735.0,1762.0,1671.0,139.04043579101562,1.376459002494812,53.75800323486328,Left
3294.89404296875,10052,1,1756.0,1748.0,1817.0,1756.0,1739.0,1736.0,1764.0,1805.0,139.04043579101562,1.376459002494812,53.75800323486328,Left
3296.89404296875,10052,1,1747.0,1763.0,1711.0,1519.0,1756.0,1748.0,1749.0,1768.0,139.04043579101562,1.376459002494812,53.75800323486328,Left
3298.89404296875,10052,1,1749.0,1755.0,1801.0,1675.0,1749.0,1757.0,1763.0,1717.0,139.04043579101562,1.376459002494812,53.75800323486328,Left
3300.89404296875,10052,1,1755.0,1757.0,1695.0,1723.0,1756.0,1771.0,1757.0,1658.0,139.04043579101562,1.376459002494812,53.75800323486328,Left
3302.89404296875,10052,1,1763.0,1746.0,1736.0,1891.0,1737.0,1769.0,1757.0,1753.0,139.04043579101562,1.376459002494812,53.75800323486328,Left
3295.27099609375,10053,1,1757.0,1765.0,1654.0,1779.0,1749.0,1764.0,1747.0,1755.0,139.61508178710938,0.7805594205856323,53.41292953491211,Left
3297.27099609375,10053,1,1763.0,1755.0,1707.0,2004.0,1757.0,1757.0,1765.0,1780.0,139.61508178710938,0.7805594205856323,53.41292953491211,Left
3299.27099609375,10053,1,1757.0,1757.0,1925.0,1331.0,1747.0,1752.0,1747.0,1781.0,139.61508178710938,0.7805594205856323,53.41292953491211,Left
3301.27099609375,10053,1,1757.0,1742.0,1833.0,1659.0,1747.0,1737.0,1749.0,1757.0,139.61508178710938,0.7805594205856323,53.41292953491211,Left
3303.27099609375,10053,1,1756.0,1764.0,1703.0,1747.0,1737.0,1736.0,1759.0,1717.0,139.61508178710938,0.7805594205856323,53.41292953491211,Left
3297.39404296875,10054,1,1758.0,1759.0,1772.0,1919.0,1755.0,1739.0,1763.0,1789.0,139.61508178710938,0.7805594205856323,53.41292953491211,Left
3299.39404296875,10054,1,1757.0,1765.0,1796.0,1765.0,1755.0,1753.0,1748.0,1803.0,139.61508178710938,0.7805594205856323,53.41292953491211,Left
3301.39404296875,10054,1,1757.0,1747.0,1737.0,1765.0,1755.0,1741.0,1763.0,1735.0,139.61508178710938,0.7805594205856323,53.41292953491211,Left
3303.39404296875,10054,1,1753.0,1747.0,1673.0,1645.0,1755.0,1767.0,1765.0,1708.0,139.61508178710938,0.7805594205856323,53.41292953491211,Left
3305.39404296875,10054,1,1757.0,1743.0,1723.0,1869.0,1753.0,1775.0,1749.0,1783.0,139.61508178710938,0.7805594205856323,53.41292953491211,Left
3297.781005859375,10055,1,1755.0,1757.0,1822.0,1886.0,1739.0,1771.0,1763.0,1755.0,139.61508178710938,0.7805594205856323,53.41292953491211,Left
3299.781005859375,10055,1,1759.0,1747.0,1783.0,1799.0,1749.0,1767.0,1765.0,1754.0,139.61508178710938,0.7805594205856323,53.41292953491211,Left
3301.781005859375,10055,1,1755.0,1757.0,1686.0,1946.0,1757.0,1747.0,1765.0,1761.0,139.61508178710938,0.7805594205856323,53.41292953491211,Left
3303.781005859375,10055,1,1757.0,1757.0,1855.0,1507.0,1752.0,1739.0,1765.0,1722.0,139.61508178710938,0.7805594205856323,53.41292953491211,Left
3305.781005859375,10055,1,1747.0,1743.0,1883.0,1591.0,1738.0,1727.0,1764.0,1707.0,139.61508178710938,0.7805594205856323,53.41292953491211,Left
3298.0703125,10056,1,1757.0,1757.0,1452.0,1763.0,1751.0,1724.0,1759.0,1721.0,139.61508178710938,0.7805594205856323,53.41292953491211,Left
3300.0703125,10056,1,1764.0,1745.0,1779.0,1877.0,1739.0,1741.0,1767.0,1771.0,139.61508178710938,0.7805594205856323,53.41292953491211,Left
3302.0703125,10056,1,1757.0,1761.0,1765.0,1678.0,1755.0,1751.0,1759.0,1771.0,139.61508178710938,0.7805594205856323,53.41292953491211,Left
3304.0703125,10056,1,1763.0,1757.0,1768.0,1812.0,1741.0,1767.0,1757.0,1749.0,139.61508178710938,0.7805594205856323,53.41292953491211,Left
3306.0703125,10056,1,1755.0,1763.0,1845.0,1799.0,1753.0,1780.0,1759.0,1753.0,139.61508178710938,0.7805594205856323,53.41292953491211,Left
3298.349853515625,10057,1,1749.0,1761.0,1573.0,1710.0,1751.0,1773.0,1763.0,1703.0,139.61508178710938,0.7805594205856323,53.41292953491211,Left
3300.349853515625,10057,1,1763.0,1763.0,1827.0,1770.0,1757.0,1764.0,1751.0,1779.0,139.61508178710938,0.7805594205856323,53.41292953491211,Left
3302.349853515625,10057,1,1747.0,1763.0,1819.0,1745.0,1751.0,1751.0,1749.0,1811.0,139.61508178710938,0.7805594205856323,53.41292953491211,Left
3304.349853515625,10057,1,1754.0,1762.0,1740.0,1605.0,1751.0,1739.0,1751.0,1750.0,139.61508178710938,0.7805594205856323,53.41292953491211,Left
3306.349853515625,10057,1,1755.0,1763.0,1709.0,1827.0,1752.0,1723.0,1763.0,1765.0,139.61508178710938,0.7805594205856323,53.41292953491211,Left
3298.629150390625,10058,1,1757.0,1763.0,1779.0,1767.0,1749.0,1725.0,1759.0,1591.0,139.61508178710938,0.7805594205856323,53.41292953491211,Left
3300.629150390625,10058,1,1758.0,1763.0,1831.0,1629.0,1742.0,1742.0,1759.0,1951.0,139.61508178710938,0.7805594205856323,53.41292953491211,Left
3302.629150390625,10058,1,1753.0,1741.0,1891.0,1879.0,1747.0,1740.0,1765.0,1683.0,139.61508178710938,0.7805594205856323,53.41292953491211,Left
3304.629150390625,10058,1,1756.0,1758.0,1627.0,1749.0,1753.0,1768.0,1763.0,1620.0,139.61508178710938,0.7805594205856323,53.41292953491211,Left
3306.629150390625,10058,1,1763.0,1758.0,1502.0,1899.0,1753.0,1759.0,1759.0,1684.0,139.61508178710938,0.7805594205856323,53.41292953491211,Left
3298.947998046875,10059,1,1748.0,1758.0,1720.0,1861.0,1755.0,1781.0,1759.0,1629.0,139.61508178710938,0.7805594205856323,53.41292953491211,Left
3300.947998046875,10059,1,1750.0,1753.0,1735.0,1391.0,1757.0,1761.0,1754.0,1864.0,139.61508178710938,0.7805594205856323,53.41292953491211,Left
3302.947998046875,10059,1,1757.0,1742.0,1979.0,2030.0,1753.0,1751.0,1764.0,1906.0,139.2666473388672,0.12317881733179092,52.96759796142578,Left
3304.947998046875,10059,1,1757.0,1758.0,1712.0,1717.0,1757.0,1735.0,1751.0,1740.0,139.2666473388672,0.12317881733179092,52.96759796142578,Left
3306.947998046875,10059,1,1747.0,1759.0,1769.0,1834.0,1750.0,1733.0,1769.0,1733.0,139.2666473388672,0.12317881733179092,52.96759796142578,Left
3299.223876953125,10060,1,1759.0,1755.0,1833.0,2041.0,1753.0,1715.0,1749.0,1765.0,139.2666473388672,0.12317881733179092,52.96759796142578,Left
3301.223876953125,10060,1,1754.0,1755.0,1799.0,1451.0,1757.0,1740.0,1767.0,1747.0,139.2666473388672,0.12317881733179092,52.96759796142578,Left
3303.223876953125,10060,1,1757.0,1763.0,1531.0,1749.0,1751.0,1765.0,1767.0,1737.0,139.2666473388672,0.12317881733179092,52.96759796142578,Left
3305.223876953125,10060,1,1757.0,1749.0,1735.0,2059.0,1741.0,1769.0,1767.0,1741.0,139.2666473388672,0.12317881733179092,52.96759796142578,Left
3307.223876953125,10060,1,1764.0,1747.0,1699.0,1671.0,1751.0,1773.0,1767.0,1746.0,139.2666473388672,0.12317881733179092,52.96759796142578,Left
3370.955078125,10061,1,1756.0,1755.0,1789.0,1736.0,1749.0,1772.0,1769.0,1775.0,139.2666473388672,0.12317881733179092,52.96759796142578,Left
3372.955078125,10061,1,1761.0,1755.0,1807.0,1739.0,1757.0,1763.0,1750.0,1741.0,139.2666473388672,0.12317881733179092,52.96759796142578,Left
3374.955078125,10061,1,1757.0,1763.0,1783.0,1823.0,1750.0,1739.0,1769.0,1747.0,139.2666473388672,0.12317881733179092,52.96759796142578,Left
3376.955078125,10061,1,1747.0,1762.0,1758.0,1715.0,1749.0,1739.0,1753.0,1773.0,139.2666473388672,0.12317881733179092,52.96759796142578,Left
3378.955078125,10061,1,1757.0,1761.0,1745.0,1826.0,1739.0,1737.0,1752.0,1755.0,139.2666473388672,0.12317881733179092,52.96759796142578,Left
3371.754150390625,10062,1,1756.0,1757.0,1761.0,1715.0,1753.0,1723.0,1767.0,1762.0,139.2666473388672,0.12317881733179092,52.96759796142578,Left
3373.754150390625,10062,1,1753.0,1755.0,1757.0,1739.0,1737.0,1747.0,1765.0,1736.0,139.2666473388672,0.12317881733179092,52.96759796142578,Left
3375.754150390625,10062,1,1757.0,1759.0,1741.0,1817.0,1748.0,1767.0,1747.0,1758.0,139.2666473388672,0.12317881733179092,52.96759796142578,Left
3377.754150390625,10062,1,1759.0,1759.0,1733.0,1677.0,1751.0,1768.0,1749.0,1693.0,139.2666473388672,0.12317881733179092,52.96759796142578,Left
3379.754150390625,10062,1,1749.0,1755.0,1762.0,1789.0,1737.0,1771.0,1763.0,1736.0,139.2666473388672,0.12317881733179092,52.96759796142578,Left
3372.235107421875,10063,1,1755.0,1759.0,1787.0,1867.0,1754.0,1763.0,1765.0,1758.0,139.2666473388672,0.12317881733179092,52.96759796142578,Left
3374.235107421875,10063,1,1759.0,1756.0,1790.0,1756.0,1752.0,1747.0,1767.0,1735.0,139.2666473388672,0.12317881733179092,52.96759796142578,Left
3376.235107421875,10063,1,1757.0,1763.0,1828.0,1734.0,1739.0,1753.0,1763.0,1737.0,139.2666473388672,0.12317881733179092,52.96759796142578,Left
3378.235107421875,10063,1,1763.0,1756.0,1711.0,1708.0,1753.0,1741.0,1763.0,1769.0,139.2666473388672,0.12317881733179092,52.96759796142578,Left
3380.235107421875,10063,1,1756.0,1755.0,1699.0,1819.0,1737.0,1728.0,1767.0,1755.0,139.2666473388672,0.12317881733179092,52.96759796142578,Left
3372.5859375,10064,1,1755.0,1757.0,1735.0,1715.0,1753.0,1735.0,1765.0,1773.0,139.2666473388672,0.12317881733179092,52.96759796142578,Left
3374.5859375,10064,1,1758.0,1756.0,1659.0,1739.0,1750.0,1746.0,1768.0,1763.0,139.2666473388672,0.12317881733179092,52.96759796142578,Left
3376.5859375,10064,1,1759.0,1743.0,1787.0,1878.0,1752.0,1766.0,1770.0,1661.0,139.2666473388672,0.12317881733179092,52.96759796142578,Left
3378.5859375,10064,1,1763.0,1758.0,1789.0,1684.0,1757.0,1758.0,1767.0,1806.0,139.2666473388672,0.12317881733179092,52.96759796142578,Left
3380.5859375,10064,1,1757.0,1745.0,1743.0,1658.0,1755.0,1779.0,1752.0,1740.0,139.2666473388672,0.12317881733179092,52.96759796142578,Left
3373.0810546875,10065,1,1753.0,1758.0,1804.0,1769.0,1753.0,1781.0,1767.0,1757.0,139.2666473388672,0.12317881733179092,52.96759796142578,Left
3375.0810546875,10065,1,1757.0,1755.0,1721.0,1883.0,1755.0,1769.0,1765.0,1750.0,139.2666473388672,0.12317881733179092,52.96759796142578,Left
3377.0810546875,10065,1,1749.0,1759.0,1805.0,1799.0,1755.0,1753.0,1766.0,1766.0,139.2666473388672,0.12317881733179092,52.96759796142578,Left
3379.0810546875,10065,1,1757.0,1758.0,1743.0,1639.0,1753.0,1737.0,1763.0,1769.0,139.2666473388672,0.12317881733179092,52.96759796142578,Left
3381.0810546875,10065,1,1763.0,1759.0,1806.0,1699.0,1740.0,1721.0,1756.0,1749.0,139.2666473388672,0.12317881733179092,52.96759796142578,Left
3373.553955078125,10066,1,1755.0,1759.0,1805.0,1864.0,1754.0,1735.0,1749.0,1727.0,139.48501586914062,-0.09834473580121994,52.68296813964844,Left
3375.553955078125,10066,1,1757.0,1754.0,1629.0,1703.0,1755.0,1741.0,1765.0,1662.0,139.48501586914062,-0.09834473580121994,52.68296813964844,Left
3377.553955078125,10066,1,1763.0,1762.0,1823.0,1976.0,1749.0,1755.0,1765.0,1768.0,139.48501586914062,-0.09834473580121994,52.68296813964844,Left
3379.553955078125,10066,1,1763.0,1757.0,1695.0,1222.0,1752.0,1767.0,1764.0,1739.0,139.48501586914062,-0.09834473580121994,52.68296813964844,Left
3381.553955078125,10066,1,1764.0,1754.0,1775.0,1943.0,1751.0,1757.0,1755.0,1767.0,139.48501586914062,-0.09834473580121994,52.68296813964844,Left
3373.886962890625,10067,1,1757.0,1741.0,1753.0,1767.0,1753.0,1769.0,1755.0,1747.0,139.48501586914062,-0.09834473580121994,52.68296813964844,Left
3375.886962890625,10067,1,1758.0,1759.0,1656.0,1942.0,1757.0,1754.0,1755.0,1691.0,139.48501586914062,-0.09834473580121994,52.68296813964844,Left
3377.886962890625,10067,1,1763.0,1746.0,1757.0,1715.0,1755.0,1741.0,1759.0,1748.0,139.48501586914062,-0.09834473580121994,52.68296813964844,Left
3379.886962890625,10067,1,1748.0,1743.0,1687.0,1707.0,1757.0,1735.0,1757.0,1789.0,139.48501586914062,-0.09834473580121994,52.68296813964844,Left
3381.886962890625,10067,1,1754.0,1757.0,1752.0,1710.0,1754.0,1717.0,1758.0,1752.0,139.48501586914062,-0.09834473580121994,52.68296813964844,Left
3374.1689453125,10068,1,1755.0,1757.0,1829.0,1737.0,1754.0,1726.0,1745.0,1765.0,139.48501586914062,-0.09834473580121994,52.68296813964844,Left
3376.1689453125,10068,1,1747.0,1757.0,1703.0,1828.0,1753.0,1740.0,1759.0,1812.0,139.48501586914062,-0.09834473580121994,52.68296813964844,Left
3378.1689453125,10068,1,1757.0,1756.0,1810.0,1768.0,1751.0,1756.0,1759.0,1711.0,139.48501586914062,-0.09834473580121994,52.68296813964844,Left
3380.1689453125,10068,1,1757.0,1763.0,1999.0,1781.0,1757.0,1757.0,1764.0,1776.0,139.48501586914062,-0.09834473580121994,52.68296813964844,Left
3382.1689453125,10068,1,1749.0,1757.0,1684.0,1813.0,1753.0,1772.0,1753.0,1823.0,139.48501586914062,-0.09834473580121994,52.68296813964844,Left
3421.946044921875,10069,1,1756.0,1762.0,1739.0,1802.0,956.0,1773.0,1757.0,1867.0,139.48501586914062,-0.09834473580121994,52.68296813964844,Left
3423.946044921875,10069,1,1756.0,1759.0,1721.0,1939.0,959.0,1757.0,1763.0,1480.0,139.48501586914062,-0.09834473580121994,52.68296813964844,Left
3425.946044921875,10069,1,1759.0,1759.0,1771.0,1607.0,403.0,1746.0,1756.0,1604.0,139.48501586914062,-0.09834473580121994,52.68296813964844,Left
3427.946044921875,10069,1,1755.0,1757.0,1757.0,1662.0,189.0,1725.0,1759.0,1790.0,139.48501586914062,-0.09834473580121994,52.68296813964844,Left
3429.946044921875,10069,1,1758.0,1743.0,1614.0,1772.0,135.0,1725.0,1764.0,1784.0,139.48501586914062,-0.09834473580121994,52.68296813964844,Left
3422.669921875,10070,1,1748.0,1756.0,1733.0,1781.0,153.0,1725.0,1759.0,1804.0,139.48501586914062,-0.09834473580121994,52.68296813964844,Left
3424.669921875,10070,1,1759.0,1757.0,1783.0,1954.0,101.0,1743.0,1763.0,1789.0,139.48501586914062,-0.09834473580121994,52.68296813964844,Left
3426.669921875,10070,1,1757.0,1757.0,1698.0,1581.0,392.0,1755.0,1749.0,1661.0,139.48501586914062,-0.09834473580121994,52.68296813964844,Left
3428.669921875,10070,1,1761.0,1756.0,1845.0,1672.0,313.0,1764.0,1763.0,1805.0,139.48501586914062,-0.09834473580121994,52.68296813964844,Left
3430.669921875,10070,1,1763.0,1747.0,1717.0,1811.0,294.0,1773.0,1741.0,1750.0,139.48501586914062,-0.09834473580121994,52.68296813964844,Left
3423.18212890625,10071,1,1747.0,1763.0,1755.0,1818.0,435.0,1771.0,1755.0,1741.0,139.48501586914062,-0.09834473580121994,52.68296813964844,Left
3425.18212890625,10071,1,1757.0,1759.0,1752.0,1725.0,473.0,1758.0,1763.0,1741.0,139.48501586914062,-0.09834473580121994,52.68296813964844,Left
3427.18212890625,10071,1,1757.0,1755.0,1765.0,1757.0,623.0,1741.0,1746.0,1779.0,139.48501586914062,-0.09834473580121994,52.68296813964844,Left
3429.18212890625,10071,1,1763.0,1759.0,1814.0,1867.0,711.0,1722.0,1763.0,1801.0,139.48501586914062,-0.09834473580121994,52.68296813964844,Left
3431.18212890625,10071,1,1749.0,1765.0,1737.0,1702.0,749.0,1727.0,1743.0,1727.0,139.48501586914062,-0.09834473580121994,52.68296813964844,Left
3423.796142578125,10072,1,1757.0,918.0,1847.0,1827.0,996.0,1725.0,1761.0,1701.0,139.48501586914062,-0.09834473580121994,52.68296813964844,Left
3425.796142578125,10072,1,1757.0,0.0,1769.0,1710.0,806.0,1747.0,1755.0,1774.0,139.48501586914062,-0.09834473580121994,52.68296813964844,Left
3427.796142578125,10072,1,1755.0,0.0,1703.0,1617.0,811.0,1754.0,1757.0,1747.0,139.94500732421875,-0.28339698910713196,52.61750793457031,Left
3429.796142578125,10072,1,1759.0,0.0,1704.0,1990.0,967.0,1755.0,1756.0,1654.0,139.94500732421875,-0.28339698910713196,52.61750793457031,Left
3431.796142578125,10072,1,1757.0,0.0,1759.0,1657.0,954.0,1771.0,1756.0,1693.0,139.94500732421875,-0.28339698910713196,52.61750793457031,Left
3424.19482421875,10073,1,1755.0,0.0,1759.0,1636.0,971.0,1759.0,1759.0,1804.0,139.94500732421875,-0.28339698910713196,52.61750793457031,Left
3426.19482421875,10073,1,1750.0,0.0,1775.0,1722.0,1594.0,1761.0,1747.0,1801.0,139.94500732421875,-0.28339698910713196,52.61750793457031,Left
3428.19482421875,10073,1,1749.0,0.0,1756.0,1791.0,1182.0,1739.0,1758.0,1723.0,139.94500732421875,-0.28339698910713196,52.61750793457031,Left
3430.19482421875,10073,1,1759.0,0.0,1775.0,1745.0,1130.0,1719.0,1763.0,1763.0,139.94500732421875,-0.28339698910713196,52.61750793457031,Left
3432.19482421875,10073,1,1759.0,0.0,1797.0,1745.0,1133.0,1717.0,1753.0,1801.0,139.94500732421875,-0.28339698910713196,52.61750793457031,Left
3424.5068359375,10074,1,1757.0,0.0,1779.0,1752.0,1333.0,1739.0,1756.0,1739.0,139.94500732421875,-0.28339698910713196,52.61750793457031,Left
3426.5068359375,10074,1,1757.0,175.0,1691.0,1806.0,1378.0,1748.0,1764.0,1695.0,139.94500732421875,-0.28339698910713196,52.61750793457031,Left
3428.5068359375,10074,1,1761.0,185.0,1737.0,1725.0,1159.0,1763.0,1757.0,1775.0,139.94500732421875,-0.28339698910713196,52.61750793457031,Left
3430.5068359375,10074,1,1747.0,380.0,1785.0,1717.0,1498.0,1768.0,1759.0,1802.0,139.94500732421875,-0.28339698910713196,52.61750793457031,Left
3432.5068359375,10074,1,1763.0,537.0,1672.0,1867.0,1307.0,1756.0,1751.0,1703.0,139.94500732421875,-0.28339698910713196,52.61750793457031,Left
3424.846923828125,10075,1,1757.0,729.0,1773.0,1815.0,1302.0,1756.0,1763.0,1774.0,139.94500732421875,-0.28339698910713196,52.61750793457031,Left
3426.846923828125,10075,1,1757.0,867.0,1790.0,1824.0,1331.0,1745.0,1763.0,1739.0,139.94500732421875,-0.28339698910713196,52.61750793457031,Left
3428.846923828125,10075,1,1749.0,1070.0,1835.0,1483.0,1517.0,1748.0,1765.0,1718.0,139.94500732421875,-0.28339698910713196,52.61750793457031,Left
3430.846923828125,10075,1,1759.0,1148.0,1878.0,1787.0,1359.0,1727.0,1763.0,1737.0,139.94500732421875,-0.28339698910713196,52.61750793457031,Left
3432.846923828125,10075,1,1758.0,1267.0,1703.0,1855.0,1497.0,1735.0,1759.0,1751.0,139.94500732421875,-0.28339698910713196,52.61750793457031,Left
3580.60986328125,10076,1,1749.0,1171.0,1621.0,1597.0,1492.0,1739.0,1762.0,1695.0,139.94500732421875,-0.28339698910713196,52.61750793457031,Left
3582.60986328125,10076,1,1757.0,1183.0,1654.0,1783.0,1429.0,1739.0,1763.0,1723.0,139.94500732421875,-0.28339698910713196,52.61750793457031,Left
3584.60986328125,10076,1,1758.0,1268.0,1772.0,2060.0,1551.0,1755.0,1759.0,1789.0,139.94500732421875,-0.28339698910713196,52.61750793457031,Left
3586.60986328125,10076,1,1759.0,1166.0,1762.0,1395.0,1392.0,1769.0,1767.0,1767.0,139.94500732421875,-0.28339698910713196,52.61750793457031,Left
3588.60986328125,10076,1,1763.0,1341.0,1809.0,1848.0,1451.0,1775.0,1755.0,1755.0,139.94500732421875,-0.28339698910713196,52.61750793457031,Left
3581.199951171875,10077,1,1757.0,1381.0,1775.0,1655.0,1373.0,1769.0,1756.0,1755.0,139.94500732421875,-0.28339698910713196,52.61750793457031,Left
3583.199951171875,10077,1,1762.0,1676.0,1823.0,1829.0,1803.0,1757.0,1755.0,1721.0,139.94500732421875,-0.28339698910713196,52.61750793457031,Left
3585.199951171875,10077,1,1757.0,1528.0,1719.0,1715.0,1448.0,1727.0,1763.0,1755.0,139.94500732421875,-0.28339698910713196,52.61750793457031,Left
3587.199951171875,10077,1,1758.0,1497.0,1737.0,1711.0,1581.0,1735.0,1765.0,1741.0,139.94500732421875,-0.28339698910713196,52.61750793457031,Left
3589.199951171875,10077,1,1757.0,1670.0,1770.0,1708.0,1555.0,1725.0,1762.0,1740.0,139.94500732421875,-0.28339698910713196,52.61750793457031,Left
3581.77587890625,10078,1,1759.0,1449.0,1630.0,1723.0,1573.0,1736.0,1764.0,1787.0,139.94500732421875,-0.28339698910713196,52.61750793457031,Left
3583.77587890625,10078,1,1755.0,1561.0,1799.0,1912.0,1916.0,1752.0,1759.0,1831.0,139.94500732421875,-0.28339698910713196,52.61750793457031,Left
3585.77587890625,10078,1,1757.0,1620.0,1757.0,1605.0,1339.0,1747.0,1763.0,1434.0,139.94500732421875,-0.28339698910713196,52.61750793457031,Left
3587.77587890625,10078,1,1747.0,1415.0,1799.0,1863.0,1559.0,1763.0,1759.0,1708.0,139.94500732421875,-0.28339698910713196,52.61750793457031,Left
3589.77587890625,10078,1,1754.0,1505.0,1757.0,1817.0,1487.0,1767.0,1765.0,1843.0,139.94500732421875,-0.28339698910713196,52.61750793457031,Left
3582.21923828125,10079,1,1747.0,1563.0,1711.0,1595.0,1999.0,1769.0,1759.0,1767.0,139.92005920410156,-0.7544095516204834,52.33981704711914,Left
3584.21923828125,10079,1,1757.0,1643.0,1655.0,1895.0,1445.0,1742.0,1765.0,1755.0,139.92005920410156,-0.7544095516204834,52.33981704711914,Left
3586.21923828125,10079,1,1764.0,1543.0,1779.0,1641.0,1654.0,1740.0,1743.0,1659.0,139.92005920410156,-0.7544095516204834,52.33981704711914,Left
3588.21923828125,10079,1,1758.0,1799.0,1839.0,1829.0,1653.0,1736.0,1757.0,1784.0,139.92005920410156,-0.7544095516204834,52.33981704711914,Left
3590.21923828125,10079,1,1756.0,1669.0,1853.0,1711.0,1549.0,1727.0,1763.0,1783.0,139.92005920410156,-0.7544095516204834,52.33981704711914,Left
3582.77490234375,10080,1,1759.0,1695.0,1639.0,1640.0,1589.0,1738.0,1763.0,1741.0,139.92005920410156,-0.7544095516204834,52.33981704711914,Left
3584.77490234375,10080,1,1756.0,1613.0,1721.0,1816.0,1595.0,1751.0,1756.0,1801.0,139.92005920410156,-0.7544095516204834,52.33981704711914,Left
3586.77490234375,10080,1,1759.0,1529.0,1621.0,1599.0,1635.0,1764.0,1757.0,1726.0,139.92005920410156,-0.7544095516204834,52.33981704711914,Left
3588.77490234375,10080,1,1757.0,1629.0,1785.0,1977.0,1571.0,1769.0,1766.0,1704.0,139.92005920410156,-0.7544095516204834,52.33981704711914,Left
3590.77490234375,10080,1,1748.0,1643.0,1774.0,1549.0,1803.0,1774.0,1749.0,1749.0,139.92005920410156,-0.7544095516204834,52.33981704711914,Left
3583.39990234375,10081,1,1759.0,1604.0,1728.0,1769.0,1549.0,1768.0,1748.0,1775.0,139.92005920410156,-0.7544095516204834,52.33981704711914,Left
3585.39990234375,10081,1,1757.0,1783.0,1879.0,1895.0,1736.0,1755.0,1759.0,1785.0,139.92005920410156,-0.7544095516204834,52.33981704711914,Left
3587.39990234375,10081,1,1763.0,1615.0,1844.0,1640.0,1620.0,1741.0,1763.0,1668.0,139.92005920410156,-0.7544095516204834,52.33981704711914,Left
3589.39990234375,10081,1,1749.0,1637.0,1799.0,1735.0,1625.0,1739.0,1762.0,1762.0,139.92005920410156,-0.7544095516204834,52.33981704711914,Left
3591.39990234375,10081,1,1764.0,1695.0,1619.0,1741.0,1623.0,1727.0,1759.0,1739.0,139.92005920410156,-0.7544095516204834,52.33981704711914,Left
3584.089111328125,10082,1,1757.0,1763.0,1709.0,1897.0,1677.0,1720.0,1756.0,1771.0,139.92005920410156,-0.7544095516204834,52.33981704711914,Left
3586.089111328125,10082,1,1749.0,1741.0,1691.0,1803.0,1670.0,1736.0,1745.0,1721.0,139.92005920410156,-0.7544095516204834,52.33981704711914,Left
3588.089111328125,10082,1,1755.0,1574.0,1828.0,1709.0,1661.0,1763.0,1767.0,1685.0,139.92005920410156,-0.7544095516204834,52.33981704711914,Left
3590.089111328125,10082,1,1756.0,1637.0,1807.0,1913.0,1763.0,1767.0,1763.0,1771.0,139.92005920410156,-0.7544095516204834,52.33981704711914,Left
3592.089111328125,10082,1,1749.0,1619.0,1779.0,1608.0,1734.0,1754.0,1767.0,1773.0,139.92005920410156,-0.7544095516204834,52.33981704711914,Left
3584.76708984375,10083,1,1761.0,1694.0,1750.0,1739.0,1588.0,1767.0,1763.0,1749.0,139.92005920410156,-0.7544095516204834,52.33981704711914,Left
3586.76708984375,10083,1,1762.0,1715.0,1769.0,1781.0,1685.0,1753.0,1759.0,1711.0,139.92005920410156,-0.7544095516204834,52.33981704711914,Left
3588.76708984375,10083,1,1759.0,1737.0,1703.0,1750.0,1625.0,1746.0,1757.0,1711.0,139.92005920410156,-0.7544095516204834,52.33981704711914,Left
3590.76708984375,10083,1,1757.0,1769.0,1783.0,1757.0,1745.0,1739.0,1765.0,1748.0,139.92005920410156,-0.7544095516204834,52.33981704711914,Left
3592.76708984375,10083,1,1757.0,1833.0,1741.0,1759.0,1683.0,1725.0,1763.0,1717.0,139.92005920410156,-0.7544095516204834,52.33981704711914,Left
3585.185791015625,10084,1,1759.0,1657.0,1747.0,1659.0,1690.0,1736.0,1759.0,1799.0,139.92005920410156,-0.7544095516204834,52.33981704711914,Left
3587.185791015625,10084,1,1763.0,1624.0,1781.0,1790.0,1653.0,1750.0,1759.0,1800.0,139.92005920410156,-0.7544095516204834,52.33981704711914,Left
3589.185791015625,10084,1,1763.0,1545.0,1767.0,1847.0,1467.0,1759.0,1765.0,1746.0,139.92005920410156,-0.7544095516204834,52.33981704711914,Left
3591.185791015625,10084,1,1755.0,1639.0,1753.0,1749.0,1914.0,1768.0,1757.0,1747.0,139.92005920410156,-0.7544095516204834,52.33981704711914,Left
3593.185791015625,10084,1,1759.0,1609.0,1755.0,1613.0,1629.0,1769.0,1761.0,1800.0,139.92005920410156,-0.7544095516204834,52.33981704711914,Left
3585.72509765625,10085,1,1749.0,1675.0,1806.0,1753.0,1823.0,1749.0,1763.0,1736.0,139.92005920410156,-0.7544095516204834,52.33981704711914,Left
3587.72509765625,10085,1,1756.0,1775.0,1691.0,1919.0,1624.0,1739.0,1763.0,1685.0,139.92005920410156,-0.7544095516204834,52.33981704711914,Left
3589.72509765625,10085,1,1758.0,1833.0,1747.0,1801.0,1751.0,1749.0,1757.0,1599.0,140.5726318359375,-0.9132934212684631,52.41733932495117,Left
3591.72509765625,10085,1,1747.0,1881.0,1693.0,1653.0,1619.0,1733.0,1765.0,1717.0,140.5726318359375,-0.9132934212684631,52.41733932495117,Left
3593.72509765625,10085,1,1759.0,1817.0,1764.0,1739.0,1263.0,1723.0,1765.0,1787.0,140.5726318359375,-0.9132934212684631,52.41733932495117,Left
3586.12109375,10086,1,1748.0,1704.0,1811.0,1727.0,2022.0,1720.0,1757.0,1789.0,140.5726318359375,-0.9132934212684631,52.41733932495117,Left
3588.12109375,10086,1,1757.0,1765.0,1826.0,1927.0,1767.0,1751.0,1756.0,1783.0,140.5726318359375,-0.9132934212684631,52.41733932495117,Left
3590.12109375,10086,1,1763.0,1487.0,1763.0,1643.0,1644.0,1758.0,1763.0,1787.0,140.5726318359375,-0.9132934212684631,52.41733932495117,Left
3592.12109375,10086,1,1762.0,1635.0,1735.0,1911.0,1733.0,1772.0,1747.0,1853.0,140.5726318359375,-0.9132934212684631,52.41733932495117,Left
3594.12109375,10086,1,1759.0,1699.0,1687.0,1592.0,1595.0,1767.0,1755.0,1695.0,140.5726318359375,-0.9132934212684631,52.41733932495117,Left
3586.492919921875,10087,1,1761.0,1695.0,1801.0,1683.0,1543.0,1767.0,1746.0,1661.0,140.5726318359375,-0.9132934212684631,52.41733932495117,Left
3588.492919921875,10087,1,1748.0,1653.0,1814.0,1579.0,1727.0,1753.0,1743.0,1811.0,140.5726318359375,-0.9132934212684631,52.41733932495117,Left
3590.492919921875,10087,1,1747.0,1846.0,1775.0,1903.0,1700.0,1721.0,1762.0,1721.0,140.5726318359375,-0.9132934212684631,52.41733932495117,Left
3592.492919921875,10087,1,1763.0,1807.0,1573.0,1901.0,1607.0,1727.0,1759.0,1651.0,140.5726318359375,-0.9132934212684631,52.41733932495117,Left
3594.492919921875,10087,1,1756.0,1801.0,1657.0,1839.0,1881.0,1733.0,1765.0,1753.0,140.5726318359375,-0.9132934212684631,52.41733932495117,Left
3586.9609375,10088,1,1757.0,1449.0,1844.0,1661.0,1673.0,1740.0,1763.0,1769.0,140.5726318359375,-0.9132934212684631,52.41733932495117,Left
3588.9609375,10088,1,1758.0,1626.0,1868.0,1821.0,1868.0,1735.0,1750.0,1803.0,140.5726318359375,-0.9132934212684631,52.41733932495117,Left
3590.9609375,10088,1,1757.0,1659.0,1763.0,1685.0,1646.0,1757.0,1763.0,1789.0,140.5726318359375,-0.9132934212684631,52.41733932495117,Left
3592.9609375,10088,1,1757.0,1693.0,1703.0,1851.0,1401.0,1767.0,1765.0,1736.0,140.5726318359375,-0.9132934212684631,52.41733932495117,Left
3594.9609375,10088,1,1756.0,1710.0,1790.0,1743.0,1471.0,1757.0,1757.0,1756.0,140.5726318359375,-0.9132934212684631,52.41733932495117,Left
3587.47509765625,10089,1,1748.0,1719.0,1735.0,1742.0,1864.0,1767.0,1765.0,1695.0,140.5726318359375,-0.9132934212684631,52.41733932495117,Left
3589.47509765625,10089,1,1749.0,1963.0,1766.0,1723.0,1939.0,1748.0,1762.0,1727.0,140.5726318359375,-0.9132934212684631,52.41733932495117,Left
3591.47509765625,10089,1,1749.0,1823.0,1791.0,1850.0,1673.0,1746.0,1747.0,1758.0,140.5726318359375,-0.9132934212684631,52.41733932495117,Left
3593.47509765625,10089,1,1756.0,1724.0,1677.0,1563.0,1661.0,1726.0,1759.0,1677.0,140.5726318359375,-0.9132934212684631,52.41733932495117,Left
3595.47509765625,10089,1,1757.0,1641.0,1775.0,1815.0,1621.0,1735.0,1756.0,1735.0,140.5726318359375,-0.9132934212684631,52.41733932495117,Left
3587.755859375,10090,1,1755.0,1717.0,1774.0,1759.0,1639.0,1741.0,1757.0,1779.0,140.5726318359375,-0.9132934212684631,52.41733932495117,Left
3589.755859375,10090,1,1757.0,1711.0,1687.0,1797.0,1814.0,1749.0,1759.0,1774.0,140.5726318359375,-0.9132934212684631,52.41733932495117,Left
3591.755859375,10090,1,1749.0,1707.0,1805.0,1712.0,1651.0,1758.0,1757.0,1775.0,140.5726318359375,-0.9132934212684631,52.41733932495117,Left
3593.755859375,10090,1,1758.0,1643.0,1791.0,1714.0,1737.0,1769.0,1761.0,1814.0,140.5726318359375,-0.9132934212684631,52.41733932495117,Left
3595.755859375,10090,1,1755.0,1833.0,1784.0,2030.0,1765.0,1771.0,1757.0,1709.0,140.5726318359375,-0.9132934212684631,52.41733932495117,Left
3588.064208984375,10091,1,1759.0,1517.0,1677.0,1567.0,1641.0,1765.0,1761.0,1656.0,140.5726318359375,-0.9132934212684631,52.41733932495117,Left
3590.064208984375,10091,1,1755.0,1608.0,1773.0,1799.0,1662.0,1756.0,1757.0,1725.0,140.5726318359375,-0.9132934212684631,52.41733932495117,Left
3592.064208984375,10091,1,1761.0,1757.0,1837.0,1751.0,1652.0,1742.0,1757.0,1787.0,140.5726318359375,-0.9132934212684631,52.41733932495117,Left
3594.064208984375,10091,1,1763.0,1861.0,1769.0,1874.0,1709.0,1718.0,1763.0,1787.0,140.5726318359375,-0.9132934212684631,52.41733932495117,Left
3596.064208984375,10091,1,1757.0,1763.0,1727.0,1629.0,1750.0,1723.0,1749.0,1802.0,140.4937286376953,-1.0897092819213867,52.511077880859375,Left
3589.5458984375,10092,1,1755.0,1740.0,1935.0,1644.0,1787.0,1739.0,1765.0,1865.0,140.4937286376953,-1.0897092819213867,52.511077880859375,Left
3591.5458984375,10092,1,1751.0,1741.0,1785.0,1701.0,1609.0,1741.0,1747.0,1735.0,140.4937286376953,-1.0897092819213867,52.511077880859375,Left
3593.5458984375,10092,1,1759.0,1581.0,1503.0,1991.0,1437.0,1764.0,1747.0,1542.0,140.4937286376953,-1.0897092819213867,52.511077880859375,Left
3595.5458984375,10092,1,1757.0,1700.0,1644.0,1822.0,1715.0,1769.0,1753.0,1421.0,140.4937286376953,-1.0897092819213867,52.511077880859375,Left
3597.5458984375,10092,1,1759.0,1695.0,1833.0,1773.0,1891.0,1769.0,1762.0,1839.0,140.4937286376953,-1.0897092819213867,52.511077880859375,Left
3590.158935546875,10093,1,1758.0,1721.0,1789.0,1711.0,1775.0,1759.0,1759.0,1791.0,140.4937286376953,-1.0897092819213867,52.511077880859375,Left
3592.158935546875,10093,1,1755.0,1827.0,1756.0,1810.0,1840.0,1751.0,1759.0,1783.0,140.4937286376953,-1.0897092819213867,52.511077880859375,Left
3594.158935546875,10093,1,1754.0,1740.0,1768.0,1703.0,1756.0,1741.0,1755.0,1775.0,140.4937286376953,-1.0897092819213867,52.511077880859375,Left
3596.158935546875,10093,1,1757.0,1815.0,1747.0,1733.0,1688.0,1735.0,1756.0,1739.0,140.4937286376953,-1.0897092819213867,52.511077880859375,Left
3598.158935546875,10093,1,1747.0,1843.0,1785.0,1917.0,1655.0,1735.0,1748.0,1781.0,140.4937286376953,-1.0897092819213867,52.511077880859375,Left
3590.51513671875,10094,1,1757.0,1737.0,1757.0,1672.0,1623.0,1721.0,1763.0,1753.0,140.4937286376953,-1.0897092819213867,52.511077880859375,Left
3592.51513671875,10094,1,1759.0,1644.0,1735.0,1675.0,1805.0,1741.0,1743.0,1775.0,140.4937286376953,-1.0897092819213867,52.511077880859375,Left
3594.51513671875,10094,1,1763.0,1637.0,1822.0,1738.0,1671.0,1763.0,1748.0,1785.0,140.4937286376953,-1.0897092819213867,52.511077880859375,Left
3596.51513671875,10094,1,1763.0,1577.0,1791.0,1819.0,1797.0,1770.0,1763.0,1741.0,140.4937286376953,-1.0897092819213867,52.511077880859375,Left
3598.51513671875,10094,1,1749.0,1637.0,1717.0,1766.0,1785.0,1757.0,1762.0,1753.0,140.4937286376953,-1.0897092819213867,52.511077880859375,Left
3596.633056640625,10095,1,1756.0,1791.0,1721.0,1903.0,1784.0,1765.0,1761.0,1739.0,140.4937286376953,-1.0897092819213867,52.511077880859375,Left
3598.633056640625,10095,1,1749.0,1757.0,1719.0,1607.0,1597.0,1753.0,1759.0,1703.0,140.4937286376953,-1.0897092819213867,52.511077880859375,Left
3600.633056640625,10095,1,1749.0,1812.0,1789.0,1769.0,1791.0,1737.0,1762.0,1773.0,140.4937286376953,-1.0897092819213867,52.511077880859375,Left
3602.633056640625,10095,1,1757.0,1751.0,1757.0,1891.0,1931.0,1737.0,1749.0,1758.0,140.4937286376953,-1.0897092819213867,52.511077880859375,Left
3604.633056640625,10095,1,1757.0,1848.0,1733.0,1898.0,1755.0,1725.0,1752.0,1663.0,140.4937286376953,-1.0897092819213867,52.511077880859375,Left
3610.656005859375,10096,1,1746.0,1829.0,1741.0,1687.0,1787.0,1737.0,1747.0,1691.0,140.4937286376953,-1.0897092819213867,52.511077880859375,Left
3612.656005859375,10096,1,1756.0,1646.0,1757.0,1509.0,1642.0,1751.0,1764.0,1809.0,140.4937286376953,-1.0897092819213867,52.511077880859375,Left
3614.656005859375,10096,1,1741.0,1628.0,1751.0,1758.0,1834.0,1763.0,1759.0,1778.0,140.4937286376953,-1.0897092819213867,52.511077880859375,Left
3616.656005859375,10096,1,1757.0,1613.0,1797.0,1751.0,1703.0,1773.0,1747.0,1815.0,140.4937286376953,-1.0897092819213867,52.511077880859375,Left
3618.656005859375,10096,1,1758.0,1592.0,1747.0,1785.0,1671.0,1757.0,1765.0,1771.0,140.4937286376953,-1.0897092819213867,52.511077880859375,Left
3612.15283203125,10097,1,1757.0,1639.0,1796.0,1740.0,1657.0,1755.0,1759.0,1819.0,140.4937286376953,-1.0897092819213867,52.511077880859375,Left
3614.15283203125,10097,1,1759.0,1671.0,1767.0,1811.0,1581.0,1749.0,1765.0,1717.0,140.4937286376953,-1.0897092819213867,52.511077880859375,Left
3616.15283203125,10097,1,1763.0,1739.0,1705.0,1912.0,1751.0,1743.0,1761.0,1625.0,140.4937286376953,-1.0897092819213867,52.511077880859375,Left
3618.15283203125,10097,1,1747.0,1935.0,1627.0,1593.0,2422.0,1714.0,1748.0,1524.0,140.4937286376953,-1.0897092819213867,52.511077880859375,Left
3620.15283203125,10097,1,1759.0,1977.0,1753.0,1719.0,1676.0,1735.0,1756.0,1780.0,140.4937286376953,-1.0897092819213867,52.511077880859375,Left
3624.97119140625,10098,1,1762.0,1843.0,1791.0,1892.0,1691.0,1737.0,1757.0,1797.0,140.4937286376953,-1.0897092819213867,52.511077880859375,Left
3626.97119140625,10098,1,1763.0,1771.0,1740.0,1781.0,1805.0,1747.0,1763.0,1783.0,140.4937286376953,-1.0897092819213867,52.511077880859375,Left
3628.97119140625,10098,1,1748.0,1634.0,1775.0,1819.0,1717.0,1764.0,1763.0,1797.0,140.67877197265625,-1.0996787548065186,52.50656509399414,Left
3630.97119140625,10098,1,1758.0,1659.0,1837.0,1671.0,1657.0,1768.0,1759.0,1781.0,140.67877197265625,-1.0996787548065186,52.50656509399414,Left
3632.97119140625,10098,1,1757.0,1672.0,1831.0,1771.0,1719.0,1769.0,1747.0,1757.0,140.67877197265625,-1.0996787548065186,52.50656509399414,Left
3644.11181640625,10099,1,1756.0,1579.0,1677.0,1669.0,1753.0,1757.0,1763.0,1722.0,140.67877197265625,-1.0996787548065186,52.50656509399414,Left
3646.11181640625,10099,1,1747.0,1800.0,1624.0,1785.0,1659.0,1753.0,1763.0,1763.0,140.67877197265625,-1.0996787548065186,52.50656509399414,Left
3648.11181640625,10099,1,1759.0,1756.0,1823.0,1705.0,1827.0,1739.0,1763.0,1739.0,140.67877197265625,-1.0996787548065186,52.50656509399414,Left
3650.11181640625,10099,1,1759.0,1967.0,1827.0,1831.0,1717.0,1727.0,1762.0,1723.0,140.67877197265625,-1.0996787548065186,52.50656509399414,Left
3652.11181640625,10099,1,1763.0,1813.0,1662.0,1901.0,1643.0,1736.0,1757.0,1711.0,140.67877197265625,-1.0996787548065186,52.50656509399414,Left
3644.550048828125,10100,1,1757.0,1751.0,1686.0,1591.0,1739.0,1739.0,1756.0,1766.0,140.67877197265625,-1.0996787548065186,52.50656509399414,Left
3646.550048828125,10100,1,1762.0,1669.0,1747.0,1687.0,1657.0,1757.0,1758.0,1757.0,140.67877197265625,-1.0996787548065186,52.50656509399414,Left
3648.550048828125,10100,1,1757.0,1629.0,1855.0,1734.0,1803.0,1767.0,1758.0,1753.0,140.67877197265625,-1.0996787548065186,52.50656509399414,Left
3650.550048828125,10100,1,1763.0,1611.0,1789.0,1703.0,1693.0,1767.0,1763.0,1754.0,140.67877197265625,-1.0996787548065186,52.50656509399414,Left
3652.550048828125,10100,1,1759.0,1647.0,1746.0,1687.0,1779.0,1767.0,1757.0,1743.0,140.67877197265625,-1.0996787548065186,52.50656509399414,Left
3687.166015625,10101,1,1757.0,1845.0,1790.0,2091.0,1579.0,1764.0,1759.0,1804.0,140.67877197265625,-1.0996787548065186,52.50656509399414,Left
3689.166015625,10101,1,1763.0,1843.0,1736.0,1781.0,1853.0,1745.0,1767.0,1851.0,140.67877197265625,-1.0996787548065186,52.50656509399414,Left
3691.166015625,10101,1,1749.0,1691.0,1763.0,1608.0,1772.0,1741.0,1750.0,1757.0,140.67877197265625,-1.0996787548065186,52.50656509399414,Left
3693.166015625,10101,1,1757.0,1773.0,1688.0,1687.0,1705.0,1737.0,1758.0,1663.0,140.67877197265625,-1.0996787548065186,52.50656509399414,Left
3695.166015625,10101,1,1757.0,1847.0,1773.0,1738.0,1752.0,1737.0,1747.0,1747.0,140.67877197265625,-1.0996787548065186,52.50656509399414,Left
3687.73193359375,10102,1,1763.0,1770.0,1677.0,1677.0,1755.0,1736.0,1767.0,1639.0,140.67877197265625,-1.0996787548065186,52.50656509399414,Left
3689.73193359375,10102,1,1759.0,1716.0,1790.0,1761.0,1557.0,1747.0,1763.0,1695.0,140.67877197265625,-1.0996787548065186,52.50656509399414,Left
3691.73193359375,10102,1,1756.0,1739.0,1705.0,1960.0,1784.0,1747.0,1765.0,1765.0,140.67877197265625,-1.0996787548065186,52.50656509399414,Left
3693.73193359375,10102,1,1763.0,1575.0,1725.0,1595.0,1817.0,1769.0,1763.0,1751.0,140.67877197265625,-1.0996787548065186,52.50656509399414,Left
3695.73193359375,10102,1,1763.0,1660.0,1814.0,1845.0,1705.0,1768.0,1763.0,1817.0,140.67877197265625,-1.0996787548065186,52.50656509399414,Left
3693.494873046875,10103,1,1748.0,1722.0,1800.0,1788.0,1949.0,1763.0,1765.0,1800.0,140.67877197265625,-1.0996787548065186,52.50656509399414,Left
3695.494873046875,10103,1,1759.0,1835.0,1711.0,1547.0,1763.0,1749.0,1763.0,1714.0,140.67877197265625,-1.0996787548065186,52.50656509399414,Left
3697.494873046875,10103,1,1749.0,1781.0,1705.0,1863.0,1595.0,1743.0,1759.0,1734.0,140.67877197265625,-1.0996787548065186,52.50656509399414,Left
3699.494873046875,10103,1,1753.0,1843.0,1786.0,1903.0,1736.0,1735.0,1748.0,1759.0,140.67877197265625,-1.0996787548065186,52.50656509399414,Left
3701.494873046875,10103,1,1763.0,1802.0,1768.0,1564.0,2011.0,1725.0,1759.0,1757.0,140.67877197265625,-1.0996787548065186,52.50656509399414,Left
3698.357177734375,10104,1,1756.0,1716.0,1772.0,1735.0,1741.0,1742.0,1763.0,1767.0,140.67877197265625,-1.0996787548065186,52.50656509399414,Left
3700.357177734375,10104,1,1747.0,1519.0,1707.0,1802.0,1543.0,1737.0,1762.0,1765.0,140.67877197265625,-1.0996787548065186,52.50656509399414,Left
3702.357177734375,10104,1,1759.0,1657.0,1816.0,1644.0,1739.0,1768.0,1757.0,1791.0,140.67877197265625,-1.0996787548065186,52.50656509399414,Left
3704.357177734375,10104,1,1757.0,1595.0,1775.0,1708.0,1685.0,1767.0,1762.0,1767.0,140.67877197265625,-1.0996787548065186,52.50656509399414,Left
3706.357177734375,10104,1,1763.0,1887.0,1720.0,1791.0,1915.0,1773.0,1767.0,1717.0,140.67877197265625,-1.0996787548065186,52.50656509399414,Left
3698.753173828125,10105,1,1759.0,1716.0,1683.0,1801.0,1786.0,1765.0,1757.0,1699.0,140.84242248535156,-1.040268898010254,52.314849853515625,Left
3700.753173828125,10105,1,1763.0,1960.0,1798.0,1867.0,1636.0,1749.0,1756.0,1705.0,140.84242248535156,-1.040268898010254,52.314849853515625,Left
3702.753173828125,10105,1,1763.0,1687.0,1766.0,1688.0,1781.0,1737.0,1759.0,1775.0,140.84242248535156,-1.040268898010254,52.314849853515625,Left
3704.753173828125,10105,1,1763.0,1891.0,1847.0,1912.0,1706.0,1727.0,1748.0,1752.0,140.84242248535156,-1.040268898010254,52.314849853515625,Left
3706.753173828125,10105,1,1749.0,1835.0,1758.0,1597.0,1781.0,1734.0,1758.0,1735.0,140.84242248535156,-1.040268898010254,52.314849853515625,Left
3703.35302734375,10106,1,1751.0,1627.0,1527.0,1718.0,1717.0,1741.0,1757.0,1716.0,140.84242248535156,-1.040268898010254,52.314849853515625,Left
3705.35302734375,10106,1,1747.0,1545.0,1679.0,1803.0,1699.0,1749.0,1763.0,1756.0,140.84242248535156,-1.040268898010254,52.314849853515625,Left
3707.35302734375,10106,1,1747.0,1687.0,1875.0,1803.0,1830.0,1749.0,1758.0,1801.0,140.84242248535156,-1.040268898010254,52.314849853515625,Left
3709.35302734375,10106,1,1753.0,1711.0,1845.0,1891.0,1689.0,1753.0,1763.0,1823.0,140.84242248535156,-1.040268898010254,52.314849853515625,Left
3711.35302734375,10106,1,1763.0,1620.0,1789.0,1587.0,1717.0,1773.0,1763.0,1743.0,140.84242248535156,-1.040268898010254,52.314849853515625,Left
3715.451904296875,10107,1,1763.0,1821.0,1627.0,1851.0,1727.0,1759.0,1759.0,1671.0,140.84242248535156,-1.040268898010254,52.314849853515625,Left
3717.451904296875,10107,1,1764.0,1831.0,1703.0,1692.0,1643.0,1749.0,1765.0,1723.0,140.84242248535156,-1.040268898010254,52.314849853515625,Left
3719.451904296875,10107,1,1749.0,1897.0,1919.0,1695.0,1765.0,1745.0,1757.0,1816.0,140.84242248535156,-1.040268898010254,52.314849853515625,Left
3721.451904296875,10107,1,1755.0,1885.0,1769.0,1669.0,1803.0,1715.0,1765.0,1720.0,140.84242248535156,-1.040268898010254,52.314849853515625,Left
3723.451904296875,10107,1,1759.0,1733.0,1813.0,1723.0,1653.0,1737.0,1763.0,1747.0,140.84242248535156,-1.040268898010254,52.314849853515625,Left
3729.482177734375,10108,1,1743.0,1750.0,1641.0,1910.0,1807.0,1745.0,1766.0,1741.0,140.84242248535156,-1.040268898010254,52.314849853515625,Left
3731.482177734375,10108,1,1759.0,1686.0,1653.0,1757.0,1716.0,1756.0,1757.0,1769.0,140.84242248535156,-1.040268898010254,52.314849853515625,Left
3733.482177734375,10108,1,1763.0,1662.0,1779.0,1752.0,1651.0,1766.0,1763.0,1613.0,140.84242248535156,-1.040268898010254,52.314849853515625,Left
3735.482177734375,10108,1,1758.0,1634.0,1771.0,1719.0,1653.0,1773.0,1757.0,1762.0,140.84242248535156,-1.040268898010254,52.314849853515625,Left
3737.482177734375,10108,1,1763.0,1653.0,1862.0,1751.0,1884.0,1753.0,1763.0,1817.0,140.84242248535156,-1.040268898010254,52.314849853515625,Left
3735.35009765625,10109,1,1762.0,1756.0,1709.0,1741.0,1563.0,1758.0,1762.0,1756.0,140.84242248535156,-1.040268898010254,52.314849853515625,Left
3737.35009765625,10109,1,1759.0,1828.0,1709.0,1790.0,1928.0,1750.0,1762.0,1767.0,140.84242248535156,-1.040268898010254,52.314849853515625,Left
3739.35009765625,10109,1,1755.0,1843.0,1699.0,1753.0,1758.0,1737.0,1765.0,1765.0,140.84242248535156,-1.040268898010254,52.314849853515625,Left
3741.35009765625,10109,1,1758.0,1837.0,1763.0,1879.0,1607.0,1723.0,1759.0,1763.0,140.84242248535156,-1.040268898010254,52.314849853515625,Left
3743.35009765625,10109,1,1759.0,1725.0,1811.0,1510.0,1756.0,1735.0,1766.0,1791.0,140.84242248535156,-1.040268898010254,52.314849853515625,Left
3764.9140625,10110,1,1745.0,1767.0,1711.0,1765.0,1789.0,1749.0,1765.0,1736.0,140.84242248535156,-1.040268898010254,52.314849853515625,Left
3766.9140625,10110,1,1755.0,1690.0,1736.0,1781.0,1656.0,1755.0,1764.0,1735.0,140.84242248535156,-1.040268898010254,52.314849853515625,Left
3768.9140625,10110,1,1762.0,1611.0,1798.0,1887.0,1747.0,1767.0,1758.0,1763.0,140.84242248535156,-1.040268898010254,52.314849853515625,Left
3770.9140625,10110,1,1761.0,1657.0,1783.0,1689.0,1845.0,1768.0,1750.0,1790.0,140.84242248535156,-1.040268898010254,52.314849853515625,Left
3772.9140625,10110,1,1756.0,1647.0,1769.0,2003.0,1646.0,1754.0,1763.0,1752.0,140.84242248535156,-1.040268898010254,52.314849853515625,Left
3797.410888671875,10111,1,1755.0,1701.0,1700.0,1669.0,1565.0,1759.0,1755.0,1654.0,140.84242248535156,-1.040268898010254,52.314849853515625,Left
3799.410888671875,10111,1,1763.0,1720.0,1708.0,1755.0,1781.0,1753.0,1763.0,1661.0,140.84242248535156,-1.040268898010254,52.314849853515625,Left
3801.410888671875,10111,1,1757.0,1971.0,1831.0,1753.0,1705.0,1723.0,1763.0,1791.0,140.63539123535156,-1.1081370115280151,52.4932975769043,Left
3803.410888671875,10111,1,1759.0,1976.0,1770.0,1619.0,1715.0,1718.0,1756.0,1733.0,140.63539123535156,-1.1081370115280151,52.4932975769043,Left
3805.410888671875,10111,1,1763.0,1806.0,1743.0,1765.0,1685.0,1737.0,1755.0,1743.0,140.63539123535156,-1.1081370115280151,52.4932975769043,Left
3798.01513671875,10112,1,1757.0,1613.0,1659.0,1737.0,1719.0,1747.0,1763.0,1652.0,140.63539123535156,-1.1081370115280151,52.4932975769043,Left
3800.01513671875,10112,1,1759.0,1670.0,1733.0,1657.0,1567.0,1750.0,1745.0,1739.0,140.63539123535156,-1.1081370115280151,52.4932975769043,Left
3802.01513671875,10112,1,1759.0,1701.0,1805.0,1791.0,1779.0,1762.0,1767.0,1812.0,140.63539123535156,-1.1081370115280151,52.4932975769043,Left
3804.01513671875,10112,1,1759.0,1685.0,1782.0,1839.0,1715.0,1767.0,1757.0,1797.0,140.63539123535156,-1.1081370115280151,52.4932975769043,Left
3806.01513671875,10112,1,1748.0,1703.0,1715.0,1669.0,1683.0,1771.0,1747.0,1752.0,140.63539123535156,-1.1081370115280151,52.4932975769043,Left
3798.31005859375,10113,1,1761.0,1645.0,1747.0,1869.0,2031.0,1742.0,1763.0,1740.0,140.63539123535156,-1.1081370115280151,52.4932975769043,Left
3800.31005859375,10113,1,1756.0,1957.0,1785.0,1832.0,2252.0,1751.0,1764.0,1757.0,140.63539123535156,-1.1081370115280151,52.4932975769043,Left
3802.31005859375,10113,1,1759.0,1673.0,1763.0,1819.0,1689.0,1737.0,1748.0,1747.0,140.63539123535156,-1.1081370115280151,52.4932975769043,Left
3804.31005859375,10113,1,1759.0,1837.0,1787.0,1749.0,3207.0,1715.0,1757.0,1748.0,140.63539123535156,-1.1081370115280151,52.4932975769043,Left
3806.31005859375,10113,1,1757.0,1913.0,1769.0,1787.0,3253.0,1737.0,1757.0,1741.0,140.63539123535156,-1.1081370115280151,52.4932975769043,Left
3798.8271484375,10114,1,1758.0,1972.0,1767.0,1789.0,0.0,1733.0,1746.0,1727.0,140.63539123535156,-1.1081370115280151,52.4932975769043,Left
3800.8271484375,10114,1,1748.0,1565.0,1767.0,1818.0,584.0,1757.0,1765.0,1733.0,140.63539123535156,-1.1081370115280151,52.4932975769043,Left
3802.8271484375,10114,1,1748.0,1647.0,1709.0,1813.0,1245.0,1762.0,1759.0,1770.0,140.63539123535156,-1.1081370115280151,52.4932975769043,Left
3804.8271484375,10114,1,1755.0,1653.0,1720.0,1651.0,1593.0,1770.0,1763.0,1772.0,140.63539123535156,-1.1081370115280151,52.4932975769043,Left
3806.8271484375,10114,1,1762.0,1636.0,1749.0,1781.0,1594.0,1765.0,1764.0,1785.0,140.63539123535156,-1.1081370115280151,52.4932975769043,Left
3800.556884765625,10115,1,1747.0,1747.0,1771.0,1758.0,1725.0,1763.0,1749.0,1780.0,140.63539123535156,-1.1081370115280151,52.4932975769043,Left
3802.556884765625,10115,1,1764.0,1801.0,1784.0,1768.0,1811.0,1755.0,1759.0,1661.0,140.63539123535156,-1.1081370115280151,52.4932975769043,Left
3804.556884765625,10115,1,1763.0,1823.0,1651.0,1679.0,1817.0,1721.0,1759.0,1700.0,140.63539123535156,-1.1081370115280151,52.4932975769043,Left
3806.556884765625,10115,1,1755.0,1827.0,1739.0,1955.0,1846.0,1716.0,1763.0,1813.0,140.63539123535156,-1.1081370115280151,52.4932975769043,Left
3808.556884765625,10115,1,1763.0,1757.0,1781.0,1785.0,2323.0,1735.0,1747.0,1779.0,140.63539123535156,-1.1081370115280151,52.4932975769043,Left
3803.888916015625,10116,1,1757.0,1661.0,1849.0,1563.0,3789.0,1741.0,1765.0,1752.0,140.63539123535156,-1.1081370115280151,52.4932975769043,Left
3805.888916015625,10116,1,1748.0,1674.0,1689.0,1749.0,3799.0,1754.0,1757.0,1683.0,140.63539123535156,-1.1081370115280151,52.4932975769043,Left
3807.888916015625,10116,1,1757.0,1827.0,1677.0,1997.0,3799.0,1757.0,1753.0,1757.0,140.63539123535156,-1.1081370115280151,52.4932975769043,Left
3809.888916015625,10116,1,1757.0,1653.0,1811.0,1683.0,3795.0,1775.0,1763.0,1767.0,140.63539123535156,-1.1081370115280151,52.4932975769043,Left
3811.888916015625,10116,1,1759.0,1685.0,1771.0,1751.0,3795.0,1768.0,1767.0,1813.0,140.63539123535156,-1.1081370115280151,52.4932975769043,Left
3826.701904296875,10117,1,1759.0,1740.0,1722.0,1769.0,3798.0,1747.0,1763.0,1771.0,140.63539123535156,-1.1081370115280151,52.4932975769043,Left
3828.701904296875,10117,1,1763.0,1863.0,1709.0,1869.0,3795.0,1747.0,1757.0,1672.0,140.63539123535156,-1.1081370115280151,52.4932975769043,Left
3830.701904296875,10117,1,1756.0,1800.0,1863.0,1589.0,3797.0,1736.0,1755.0,1659.0,140.63539123535156,-1.1081370115280151,52.4932975769043,Left
3832.701904296875,10117,1,1753.0,1705.0,1771.0,1726.0,3799.0,1733.0,1763.0,1769.0,140.63539123535156,-1.1081370115280151,52.4932975769043,Left
3834.701904296875,10117,1,1757.0,1789.0,1765.0,1801.0,3793.0,1737.0,1765.0,1813.0,140.735107421875,-0.9887200593948364,52.68577575683594,Left
3894.533935546875,10118,1,1757.0,1876.0,1718.0,1711.0,3771.0,1750.0,1763.0,1775.0,140.735107421875,-0.9887200593948364,52.68577575683594,Left
3896.533935546875,10118,1,1747.0,1757.0,1749.0,1781.0,3796.0,1753.0,1759.0,1723.0,140.735107421875,-0.9887200593948364,52.68577575683594,Left
3898.533935546875,10118,1,1763.0,1627.0,1775.0,1803.0,3771.0,1767.0,1763.0,1773.0,140.735107421875,-0.9887200593948364,52.68577575683594,Left
3900.533935546875,10118,1,1756.0,1573.0,1758.0,1763.0,3353.0,1773.0,1755.0,1831.0,140.735107421875,-0.9887200593948364,52.68577575683594,Left
3902.533935546875,10118,1,1757.0,1673.0,1789.0,1753.0,3002.0,1752.0,1763.0,1755.0,140.735107421875,-0.9887200593948364,52.68577575683594,Left
3895.087890625,10119,1,1755.0,1749.0,1669.0,1735.0,2739.0,1762.0,1748.0,1725.0,140.735107421875,-0.9887200593948364,52.68577575683594,Left
3897.087890625,10119,1,1761.0,1835.0,1661.0,1755.0,2571.0,1735.0,1764.0,1564.0,140.735107421875,-0.9887200593948364,52.68577575683594,Left
3899.087890625,10119,1,1749.0,1907.0,1813.0,1779.0,2415.0,1739.0,1756.0,1737.0,140.735107421875,-0.9887200593948364,52.68577575683594,Left
3901.087890625,10119,1,1757.0,1843.0,1716.0,1735.0,2292.0,1723.0,1765.0,1643.0,140.735107421875,-0.9887200593948364,52.68577575683594,Left
3903.087890625,10119,1,1757.0,1727.0,1806.0,1739.0,2189.0,1735.0,1763.0,1755.0,140.735107421875,-0.9887200593948364,52.68577575683594,Left
3895.512939453125,10120,1,1756.0,1756.0,1708.0,1805.0,2104.0,1743.0,1745.0,1783.0,140.735107421875,-0.9887200593948364,52.68577575683594,Left
3897.512939453125,10120,1,1754.0,1618.0,1771.0,1722.0,2024.0,1756.0,1750.0,1804.0,140.735107421875,-0.9887200593948364,52.68577575683594,Left
3899.512939453125,10120,1,1757.0,1677.0,1727.0,1873.0,1989.0,1765.0,1747.0,1781.0,140.735107421875,-0.9887200593948364,52.68577575683594,Left
3901.512939453125,10120,1,1749.0,1780.0,1788.0,1669.0,1951.0,1769.0,1759.0,1780.0,140.735107421875,-0.9887200593948364,52.68577575683594,Left
3903.512939453125,10120,1,1755.0,1575.0,1806.0,1707.0,1912.0,1773.0,1759.0,1755.0,140.735107421875,-0.9887200593948364,52.68577575683594,Left
3895.927978515625,10121,1,1749.0,1685.0,1765.0,2025.0,1887.0,1747.0,1739.0,1815.0,140.735107421875,-0.9887200593948364,52.68577575683594,Left
3897.927978515625,10121,1,1755.0,1783.0,1748.0,1437.0,1864.0,1735.0,1742.0,1801.0,140.735107421875,-0.9887200593948364,52.68577575683594,Left
3899.927978515625,10121,1,1755.0,1789.0,1837.0,1788.0,1838.0,1740.0,1757.0,1757.0,140.735107421875,-0.9887200593948364,52.68577575683594,Left
3901.927978515625,10121,1,1759.0,1865.0,1815.0,1752.0,1823.0,1727.0,1763.0,1629.0,140.735107421875,-0.9887200593948364,52.68577575683594,Left
3903.927978515625,10121,1,1759.0,1851.0,1584.0,1749.0,1821.0,1738.0,1763.0,1636.0,140.735107421875,-0.9887200593948364,52.68577575683594,Left
3896.427978515625,10122,1,1759.0,1748.0,1671.0,1734.0,1810.0,1740.0,1763.0,1676.0,140.735107421875,-0.9887200593948364,52.68577575683594,Left
3898.427978515625,10122,1,1757.0,1685.0,1875.0,1772.0,1799.0,1755.0,1759.0,1746.0,140.735107421875,-0.9887200593948364,52.68577575683594,Left
3900.427978515625,10122,1,1763.0,1621.0,1797.0,1723.0,1791.0,1765.0,1750.0,1787.0,140.735107421875,-0.9887200593948364,52.68577575683594,Left
3902.427978515625,10122,1,1758.0,1701.0,1705.0,1785.0,1785.0,1767.0,1767.0,1813.0,140.735107421875,-0.9887200593948364,52.68577575683594,Left
