Timestamp_ms,Packet_Number,Trial_ID,Ch1,Ch2,Ch3,Ch4,Ch5,Ch6,Ch7,Ch8,Ch9,Ch10,Ch11,Label
2059.302734375,68360,1,1787.0,1755.0,1823.0,1705.0,1753.0,1755.0,1765.0,1763.0,82.32254028320312,-18.283370971679688,-72.95134735107422,Left
2061.302734375,68360,1,1805.0,1749.0,1673.0,1717.0,1749.0,1743.0,1753.0,1725.0,82.32254028320312,-18.283370971679688,-72.95134735107422,Left
2063.302734375,68360,1,1799.0,1756.0,1735.0,1764.0,1743.0,1753.0,1761.0,1754.0,82.32254028320312,-18.283370971679688,-72.95134735107422,Left
2065.302734375,68360,1,1787.0,1757.0,1837.0,1831.0,1751.0,1743.0,1765.0,1763.0,82.32254028320312,-18.283370971679688,-72.95134735107422,Left
2067.302734375,68360,1,1759.0,1755.0,1773.0,1769.0,1757.0,1750.0,1763.0,1752.0,82.32254028320312,-18.283370971679688,-72.95134735107422,Left
2070.10009765625,68361,1,1743.0,1763.0,1771.0,1801.0,1755.0,1746.0,1764.0,1765.0,82.32254028320312,-18.283370971679688,-72.95134735107422,Left
2072.10009765625,68361,1,1718.0,1750.0,1702.0,1739.0,1741.0,1753.0,1763.0,1741.0,81.84092712402344,-18.376562118530273,-72.82366943359375,Left
2074.10009765625,68361,1,1717.0,1749.0,1758.0,1691.0,1755.0,1743.0,1765.0,1748.0,81.84092712402344,-18.376562118530273,-72.82366943359375,Left
2076.10009765625,68361,1,1737.0,1756.0,1833.0,1716.0,1755.0,1753.0,1755.0,1749.0,81.84092712402344,-18.376562118530273,-72.82366943359375,Left
2078.10009765625,68361,1,1767.0,1749.0,1811.0,1721.0,1750.0,1751.0,1767.0,1749.0,81.84092712402344,-18.376562118530273,-72.82366943359375,Left
2078.552734375,68362,1,1789.0,1759.0,1765.0,1716.0,1743.0,1750.0,1751.0,1741.0,81.84092712402344,-18.376562118530273,-72.82366943359375,Left
2080.552734375,68362,1,1810.0,1757.0,1747.0,1709.0,1747.0,1751.0,1765.0,1759.0,81.84092712402344,-18.376562118530273,-72.82366943359375,Left
2082.552734375,68362,1,1801.0,1750.0,1746.0,1705.0,1757.0,1754.0,1762.0,1765.0,81.84092712402344,-18.376562118530273,-72.82366943359375,Left
2084.552734375,68362,1,1787.0,1749.0,1821.0,1835.0,1753.0,1751.0,1765.0,1763.0,81.84092712402344,-18.376562118530273,-72.82366943359375,Left
2086.552734375,68362,1,1755.0,1751.0,1657.0,1911.0,1749.0,1751.0,1763.0,1747.0,81.84092712402344,-18.376562118530273,-72.82366943359375,Left
2089.48291015625,68363,1,1720.0,1755.0,1737.0,1848.0,1738.0,1736.0,1767.0,1739.0,81.84092712402344,-18.376562118530273,-72.82366943359375,Left
2091.48291015625,68363,1,1715.0,1753.0,1749.0,1822.0,1755.0,1755.0,1762.0,1747.0,81.84092712402344,-18.376562118530273,-72.82366943359375,Left
2093.48291015625,68363,1,1719.0,1754.0,1769.0,1863.0,1755.0,1742.0,1767.0,1758.0,81.84092712402344,-18.376562118530273,-72.82366943359375,Left
2095.48291015625,68363,1,1736.0,1757.0,1727.0,1837.0,1745.0,1751.0,1765.0,1751.0,81.84092712402344,-18.376562118530273,-72.82366943359375,Left
2097.48291015625,68363,1,1767.0,1755.0,1741.0,1821.0,1745.0,1753.0,1765.0,1745.0,81.84092712402344,-18.376562118530273,-72.82366943359375,Left
2098.505126953125,68364,1,1791.0,1753.0,1726.0,1742.0,1751.0,1747.0,1762.0,1753.0,81.84092712402344,-18.376562118530273,-72.82366943359375,Left
2100.505126953125,68364,1,1805.0,1756.0,1809.0,1721.0,1751.0,1750.0,1752.0,1739.0,81.84092712402344,-18.376562118530273,-72.82366943359375,Left
2102.505126953125,68364,1,1803.0,1757.0,1779.0,1782.0,1743.0,1753.0,1764.0,1752.0,81.84092712402344,-18.376562118530273,-72.82366943359375,Left
2104.505126953125,68364,1,1785.0,1757.0,1767.0,1820.0,1750.0,1752.0,1765.0,1747.0,81.84092712402344,-18.376562118530273,-72.82366943359375,Left
2106.505126953125,68364,1,1759.0,1750.0,1798.0,1810.0,1752.0,1751.0,1765.0,1759.0,81.84092712402344,-18.376562118530273,-72.82366943359375,Left
2109.965087890625,68365,1,1723.0,1749.0,1836.0,1764.0,1757.0,1751.0,1753.0,1765.0,81.84092712402344,-18.376562118530273,-72.82366943359375,Left
2111.965087890625,68365,1,1715.0,1757.0,1712.0,1699.0,1741.0,1741.0,1755.0,1753.0,81.84092712402344,-18.376562118530273,-72.82366943359375,Left
2113.965087890625,68365,1,1708.0,1757.0,1766.0,1753.0,1757.0,1751.0,1764.0,1769.0,81.84092712402344,-18.376562118530273,-72.82366943359375,Left
2115.965087890625,68365,1,1738.0,1757.0,1655.0,1619.0,1755.0,1753.0,1765.0,1757.0,81.84092712402344,-18.376562118530273,-72.82366943359375,Left
2117.965087890625,68365,1,1758.0,1755.0,1770.0,1657.0,1754.0,1753.0,1763.0,1746.0,81.84092712402344,-18.376562118530273,-72.82366943359375,Left
2118.287841796875,68366,1,1797.0,1755.0,1748.0,1711.0,1751.0,1750.0,1759.0,1727.0,81.84092712402344,-18.376562118530273,-72.82366943359375,Left
2120.287841796875,68366,1,1805.0,1753.0,1709.0,1883.0,1739.0,1745.0,1759.0,1723.0,81.84092712402344,-18.376562118530273,-72.82366943359375,Left
2122.287841796875,68366,1,1800.0,1751.0,1811.0,1855.0,1751.0,1753.0,1759.0,1743.0,81.84092712402344,-18.376562118530273,-72.82366943359375,Left
2124.287841796875,68366,1,1785.0,1757.0,1791.0,1805.0,1767.0,1747.0,1755.0,1753.0,81.84092712402344,-18.376562118530273,-72.82366943359375,Left
2126.287841796875,68366,1,1759.0,1759.0,1767.0,1884.0,1758.0,1752.0,1767.0,1748.0,81.84092712402344,-18.376562118530273,-72.82366943359375,Left
2129.906005859375,68367,1,1737.0,1757.0,1748.0,1827.0,1757.0,1753.0,1765.0,1763.0,81.84092712402344,-18.376562118530273,-72.82366943359375,Left
2131.906005859375,68367,1,1717.0,1748.0,1765.0,1751.0,1753.0,1752.0,1764.0,1762.0,81.84092712402344,-18.376562118530273,-72.82366943359375,Left
2133.906005859375,68367,1,1719.0,1757.0,1764.0,1791.0,1751.0,1751.0,1764.0,1757.0,81.84092712402344,-18.376562118530273,-72.82366943359375,Left
2135.906005859375,68367,1,1724.0,1758.0,1765.0,1791.0,1751.0,1745.0,1764.0,1755.0,81.8963623046875,-18.523466110229492,-72.90643310546875,Left
2137.906005859375,68367,1,1765.0,1757.0,1851.0,1811.0,1746.0,1751.0,1755.0,1736.0,81.8963623046875,-18.523466110229492,-72.90643310546875,Left
2138.299072265625,68368,1,1790.0,1750.0,1625.0,1764.0,1753.0,1751.0,1765.0,1752.0,81.8963623046875,-18.523466110229492,-72.90643310546875,Left
2140.299072265625,68368,1,1805.0,1755.0,1724.0,1763.0,1753.0,1743.0,1765.0,1759.0,81.8963623046875,-18.523466110229492,-72.90643310546875,Left
2142.299072265625,68368,1,1791.0,1755.0,1767.0,1772.0,1757.0,1745.0,1765.0,1747.0,81.8963623046875,-18.523466110229492,-72.90643310546875,Left
2144.299072265625,68368,1,1785.0,1759.0,1837.0,1717.0,1749.0,1750.0,1755.0,1747.0,81.8963623046875,-18.523466110229492,-72.90643310546875,Left
2146.299072265625,68368,1,1763.0,1756.0,1710.0,1751.0,1750.0,1755.0,1764.0,1743.0,81.8963623046875,-18.523466110229492,-72.90643310546875,Left
2148.989013671875,68369,1,1727.0,1765.0,1705.0,1811.0,1757.0,1738.0,1759.0,1739.0,81.8963623046875,-18.523466110229492,-72.90643310546875,Left
2150.989013671875,68369,1,1712.0,1756.0,1702.0,1790.0,1750.0,1750.0,1765.0,1755.0,81.8963623046875,-18.523466110229492,-72.90643310546875,Left
2152.989013671875,68369,1,1717.0,1755.0,1779.0,1833.0,1755.0,1743.0,1765.0,1758.0,81.8963623046875,-18.523466110229492,-72.90643310546875,Left
2154.989013671875,68369,1,1733.0,1750.0,1822.0,1807.0,1747.0,1751.0,1757.0,1763.0,81.8963623046875,-18.523466110229492,-72.90643310546875,Left
2156.989013671875,68369,1,1765.0,1759.0,1837.0,1833.0,1752.0,1753.0,1765.0,1751.0,81.8963623046875,-18.523466110229492,-72.90643310546875,Left
2160.5087890625,68370,1,1787.0,1757.0,1763.0,1751.0,1743.0,1748.0,1763.0,1739.0,81.8963623046875,-18.523466110229492,-72.90643310546875,Left
2162.5087890625,68370,1,1803.0,1756.0,1712.0,1833.0,1743.0,1746.0,1763.0,1735.0,81.8963623046875,-18.523466110229492,-72.90643310546875,Left
2164.5087890625,68370,1,1802.0,1757.0,1806.0,1849.0,1752.0,1753.0,1758.0,1757.0,81.8963623046875,-18.523466110229492,-72.90643310546875,Left
2166.5087890625,68370,1,1787.0,1755.0,1755.0,1816.0,1754.0,1748.0,1765.0,1743.0,81.8963623046875,-18.523466110229492,-72.90643310546875,Left
2168.5087890625,68370,1,1763.0,1755.0,1705.0,1741.0,1759.0,1745.0,1763.0,1753.0,81.8963623046875,-18.523466110229492,-72.90643310546875,Left
2168.65576171875,68371,1,1737.0,1753.0,1701.0,1771.0,1757.0,1753.0,1762.0,1740.0,81.8963623046875,-18.523466110229492,-72.90643310546875,Left
2170.65576171875,68371,1,1723.0,1755.0,1743.0,1708.0,1755.0,1751.0,1759.0,1743.0,81.8963623046875,-18.523466110229492,-72.90643310546875,Left
2172.65576171875,68371,1,1717.0,1756.0,1778.0,1739.0,1757.0,1754.0,1767.0,1725.0,81.8963623046875,-18.523466110229492,-72.90643310546875,Left
2174.65576171875,68371,1,1727.0,1758.0,1747.0,1802.0,1743.0,1751.0,1763.0,1751.0,81.8963623046875,-18.523466110229492,-72.90643310546875,Left
2176.65576171875,68371,1,1756.0,1757.0,1740.0,1768.0,1753.0,1753.0,1766.0,1780.0,81.8963623046875,-18.523466110229492,-72.90643310546875,Left
2181.671875,68372,1,1789.0,1765.0,1784.0,1738.0,1755.0,1753.0,1755.0,1755.0,81.8963623046875,-18.523466110229492,-72.90643310546875,Left
2183.671875,68372,1,1791.0,1755.0,1779.0,1699.0,1749.0,1753.0,1765.0,1737.0,81.8963623046875,-18.523466110229492,-72.90643310546875,Left
2185.671875,68372,1,1803.0,1759.0,1753.0,1597.0,1751.0,1753.0,1767.0,1751.0,81.8963623046875,-18.523466110229492,-72.90643310546875,Left
2187.671875,68372,1,1781.0,1758.0,1753.0,1637.0,1751.0,1753.0,1765.0,1751.0,81.8963623046875,-18.523466110229492,-72.90643310546875,Left
2189.671875,68372,1,1759.0,1750.0,1727.0,1695.0,1753.0,1753.0,1765.0,1750.0,81.8963623046875,-18.523466110229492,-72.90643310546875,Left
2186.466064453125,68373,1,1735.0,1749.0,1773.0,1685.0,1752.0,1753.0,1763.0,1751.0,81.8963623046875,-18.523466110229492,-72.90643310546875,Left
2188.466064453125,68373,1,1711.0,1757.0,1765.0,1656.0,1747.0,1749.0,1757.0,1747.0,81.8963623046875,-18.523466110229492,-72.90643310546875,Left
2190.466064453125,68373,1,1711.0,1751.0,1771.0,1609.0,1756.0,1753.0,1759.0,1765.0,81.8963623046875,-18.523466110229492,-72.90643310546875,Left
2192.466064453125,68373,1,1733.0,1755.0,1671.0,1583.0,1753.0,1747.0,1753.0,1740.0,81.8963623046875,-18.523466110229492,-72.90643310546875,Left
2194.466064453125,68373,1,1764.0,1757.0,1749.0,1673.0,1753.0,1752.0,1765.0,1752.0,81.8963623046875,-18.523466110229492,-72.90643310546875,Left
2198.68896484375,68374,1,1787.0,1763.0,1891.0,1689.0,1755.0,1751.0,1763.0,1752.0,81.8963623046875,-18.523466110229492,-72.90643310546875,Left
2200.68896484375,68374,1,1791.0,1762.0,1817.0,1661.0,1755.0,1753.0,1753.0,1743.0,82.07158660888672,-18.61717414855957,-72.90941619873047,Left
2202.68896484375,68374,1,1799.0,1750.0,1755.0,1767.0,1736.0,1753.0,1755.0,1737.0,82.07158660888672,-18.61717414855957,-72.90941619873047,Left
2204.68896484375,68374,1,1786.0,1749.0,1715.0,1768.0,1752.0,1753.0,1764.0,1749.0,82.07158660888672,-18.61717414855957,-72.90941619873047,Left
2206.68896484375,68374,1,1763.0,1759.0,1551.0,1733.0,1756.0,1750.0,1765.0,1749.0,82.07158660888672,-18.61717414855957,-72.90941619873047,Left
2208.68310546875,68375,1,1737.0,1767.0,1871.0,1759.0,1757.0,1753.0,1763.0,1763.0,82.07158660888672,-18.61717414855957,-72.90941619873047,Left
2210.68310546875,68375,1,1707.0,1753.0,1771.0,1844.0,1739.0,1751.0,1763.0,1747.0,82.07158660888672,-18.61717414855957,-72.90941619873047,Left
2212.68310546875,68375,1,1719.0,1749.0,1791.0,1786.0,1751.0,1752.0,1755.0,1769.0,82.07158660888672,-18.61717414855957,-72.90941619873047,Left
2214.68310546875,68375,1,1735.0,1757.0,1806.0,1789.0,1747.0,1752.0,1763.0,1765.0,82.07158660888672,-18.61717414855957,-72.90941619873047,Left
2216.68310546875,68375,1,1763.0,1757.0,1763.0,1805.0,1741.0,1753.0,1759.0,1738.0,82.07158660888672,-18.61717414855957,-72.90941619873047,Left
2218.3681640625,68376,1,1789.0,1749.0,1707.0,1705.0,1753.0,1748.0,1763.0,1737.0,82.07158660888672,-18.61717414855957,-72.90941619873047,Left
2220.3681640625,68376,1,1792.0,1761.0,1768.0,1663.0,1751.0,1752.0,1765.0,1755.0,82.07158660888672,-18.61717414855957,-72.90941619873047,Left
2222.3681640625,68376,1,1803.0,1757.0,1565.0,1717.0,1747.0,1753.0,1763.0,1737.0,82.07158660888672,-18.61717414855957,-72.90941619873047,Left
2224.3681640625,68376,1,1780.0,1756.0,1603.0,1763.0,1746.0,1752.0,1766.0,1737.0,82.07158660888672,-18.61717414855957,-72.90941619873047,Left
2226.3681640625,68376,1,1759.0,1749.0,1833.0,1819.0,1743.0,1753.0,1763.0,1765.0,82.07158660888672,-18.61717414855957,-72.90941619873047,Left
2226.4111328125,68377,1,1737.0,1737.0,1854.0,1785.0,1754.0,1752.0,1765.0,1755.0,82.07158660888672,-18.61717414855957,-72.90941619873047,Left
2228.4111328125,68377,1,1716.0,1749.0,1770.0,1805.0,1767.0,1751.0,1765.0,1752.0,82.07158660888672,-18.61717414855957,-72.90941619873047,Left
2230.4111328125,68377,1,1711.0,1757.0,1735.0,1765.0,1757.0,1752.0,1766.0,1745.0,82.07158660888672,-18.61717414855957,-72.90941619873047,Left
2232.4111328125,68377,1,1727.0,1755.0,1785.0,1773.0,1739.0,1750.0,1763.0,1741.0,82.07158660888672,-18.61717414855957,-72.90941619873047,Left
2234.4111328125,68377,1,1759.0,1757.0,1771.0,1823.0,1747.0,1751.0,1766.0,1749.0,82.07158660888672,-18.61717414855957,-72.90941619873047,Left
2236.69970703125,68378,1,1790.0,1741.0,1739.0,1741.0,1755.0,1751.0,1759.0,1752.0,82.07158660888672,-18.61717414855957,-72.90941619873047,Left
2238.69970703125,68378,1,1799.0,1755.0,1787.0,1711.0,1754.0,1753.0,1764.0,1764.0,82.07158660888672,-18.61717414855957,-72.90941619873047,Left
2240.69970703125,68378,1,1806.0,1751.0,1833.0,1757.0,1751.0,1747.0,1756.0,1773.0,82.07158660888672,-18.61717414855957,-72.90941619873047,Left
2242.69970703125,68378,1,1789.0,1755.0,1839.0,1755.0,1751.0,1751.0,1765.0,1757.0,82.07158660888672,-18.61717414855957,-72.90941619873047,Left
2244.69970703125,68378,1,1765.0,1757.0,1813.0,1800.0,1763.0,1753.0,1753.0,1753.0,82.07158660888672,-18.61717414855957,-72.90941619873047,Left
2246.65087890625,68379,1,1735.0,1753.0,1582.0,1830.0,1752.0,1746.0,1765.0,1739.0,82.07158660888672,-18.61717414855957,-72.90941619873047,Left
2248.65087890625,68379,1,1711.0,1754.0,1613.0,1849.0,1745.0,1749.0,1766.0,1728.0,82.07158660888672,-18.61717414855957,-72.90941619873047,Left
2250.65087890625,68379,1,1711.0,1749.0,1739.0,1781.0,1741.0,1749.0,1760.0,1747.0,82.07158660888672,-18.61717414855957,-72.90941619873047,Left
2252.65087890625,68379,1,1733.0,1750.0,1821.0,1835.0,1751.0,1751.0,1758.0,1749.0,82.07158660888672,-18.61717414855957,-72.90941619873047,Left
2254.65087890625,68379,1,1763.0,1757.0,1775.0,1819.0,1763.0,1752.0,1764.0,1739.0,82.07158660888672,-18.61717414855957,-72.90941619873047,Left
2256.871826171875,68380,1,1789.0,1758.0,1771.0,1774.0,1754.0,1746.0,1759.0,1763.0,82.07158660888672,-18.61717414855957,-72.90941619873047,Left
2258.871826171875,68380,1,1806.0,1755.0,1771.0,1774.0,1742.0,1754.0,1763.0,1759.0,82.07158660888672,-18.61717414855957,-72.90941619873047,Left
2260.871826171875,68380,1,1805.0,1758.0,1829.0,1779.0,1752.0,1751.0,1763.0,1759.0,82.07158660888672,-18.61717414855957,-72.90941619873047,Left
2262.871826171875,68380,1,1789.0,1749.0,1801.0,1753.0,1752.0,1752.0,1765.0,1768.0,82.07158660888672,-18.61717414855957,-72.90941619873047,Left
2264.871826171875,68380,1,1765.0,1755.0,1699.0,1727.0,1753.0,1752.0,1767.0,1741.0,82.04631805419922,-18.75209617614746,-73.03238677978516,Left
2267.344970703125,68381,1,1727.0,1753.0,1547.0,1763.0,1753.0,1752.0,1763.0,1734.0,82.04631805419922,-18.75209617614746,-73.03238677978516,Left
2269.344970703125,68381,1,1717.0,1755.0,1773.0,1782.0,1757.0,1753.0,1766.0,1754.0,82.04631805419922,-18.75209617614746,-73.03238677978516,Left
2271.344970703125,68381,1,1715.0,1755.0,1767.0,1845.0,1752.0,1753.0,1765.0,1762.0,82.04631805419922,-18.75209617614746,-73.03238677978516,Left
2273.344970703125,68381,1,1717.0,1755.0,1772.0,1831.0,1753.0,1752.0,1765.0,1755.0,82.04631805419922,-18.75209617614746,-73.03238677978516,Left
2275.344970703125,68381,1,1750.0,1755.0,1787.0,1763.0,1753.0,1751.0,1755.0,1749.0,82.04631805419922,-18.75209617614746,-73.03238677978516,Left
2279.200927734375,68382,1,1785.0,1753.0,1747.0,1699.0,1756.0,1749.0,1763.0,1727.0,82.04631805419922,-18.75209617614746,-73.03238677978516,Left
2281.200927734375,68382,1,1801.0,1753.0,1767.0,1706.0,1751.0,1752.0,1765.0,1749.0,82.04631805419922,-18.75209617614746,-73.03238677978516,Left
2283.200927734375,68382,1,1799.0,1758.0,1769.0,1661.0,1755.0,1753.0,1765.0,1763.0,82.04631805419922,-18.75209617614746,-73.03238677978516,Left
2285.200927734375,68382,1,1789.0,1755.0,1822.0,1703.0,1753.0,1750.0,1765.0,1759.0,82.04631805419922,-18.75209617614746,-73.03238677978516,Left
2287.200927734375,68382,1,1766.0,1757.0,1747.0,1747.0,1747.0,1750.0,1765.0,1747.0,82.04631805419922,-18.75209617614746,-73.03238677978516,Left
2287.323974609375,68383,1,1726.0,1753.0,1707.0,1739.0,1751.0,1751.0,1764.0,1733.0,82.04631805419922,-18.75209617614746,-73.03238677978516,Left
2289.323974609375,68383,1,1711.0,1749.0,1763.0,1749.0,1758.0,1749.0,1765.0,1733.0,82.04631805419922,-18.75209617614746,-73.03238677978516,Left
2291.323974609375,68383,1,1714.0,1757.0,1939.0,1769.0,1763.0,1742.0,1765.0,1751.0,82.04631805419922,-18.75209617614746,-73.03238677978516,Left
2293.323974609375,68383,1,1726.0,1757.0,1671.0,1743.0,1747.0,1752.0,1753.0,1759.0,82.04631805419922,-18.75209617614746,-73.03238677978516,Left
2295.323974609375,68383,1,1753.0,1749.0,1811.0,1757.0,1775.0,1753.0,1763.0,1763.0,82.04631805419922,-18.75209617614746,-73.03238677978516,Left
2298.462890625,68384,1,1785.0,1756.0,1797.0,1709.0,1752.0,1753.0,1757.0,1772.0,82.04631805419922,-18.75209617614746,-73.03238677978516,Left
2300.462890625,68384,1,1801.0,1756.0,1695.0,1643.0,1753.0,1751.0,1763.0,1757.0,82.04631805419922,-18.75209617614746,-73.03238677978516,Left
2302.462890625,68384,1,1804.0,1755.0,1662.0,1651.0,1759.0,1751.0,1759.0,1757.0,82.04631805419922,-18.75209617614746,-73.03238677978516,Left
2304.462890625,68384,1,1790.0,1755.0,1739.0,1578.0,1749.0,1752.0,1755.0,1741.0,82.04631805419922,-18.75209617614746,-73.03238677978516,Left
2306.462890625,68384,1,1756.0,1757.0,1799.0,1694.0,1749.0,1751.0,1762.0,1726.0,82.04631805419922,-18.75209617614746,-73.03238677978516,Left
2306.903076171875,68385,1,1735.0,1757.0,1724.0,1739.0,1709.0,1751.0,1765.0,1709.0,82.04631805419922,-18.75209617614746,-73.03238677978516,Left
2308.903076171875,68385,1,1717.0,1757.0,1611.0,1723.0,1727.0,1752.0,1759.0,1711.0,82.04631805419922,-18.75209617614746,-73.03238677978516,Left
2310.903076171875,68385,1,1718.0,1755.0,1771.0,1849.0,1748.0,1752.0,1765.0,1749.0,82.04631805419922,-18.75209617614746,-73.03238677978516,Left
2312.903076171875,68385,1,1723.0,1761.0,1771.0,1865.0,1757.0,1752.0,1767.0,1763.0,82.04631805419922,-18.75209617614746,-73.03238677978516,Left
2314.903076171875,68385,1,1756.0,1757.0,1816.0,1811.0,1765.0,1747.0,1765.0,1771.0,82.04631805419922,-18.75209617614746,-73.03238677978516,Left
2318.922119140625,68386,1,1788.0,1763.0,1805.0,1807.0,1779.0,1751.0,1765.0,1756.0,82.04631805419922,-18.75209617614746,-73.03238677978516,Left
2320.922119140625,68386,1,1798.0,1753.0,1783.0,1753.0,1785.0,1755.0,1763.0,1751.0,82.04631805419922,-18.75209617614746,-73.03238677978516,Left
2322.922119140625,68386,1,1810.0,1757.0,1755.0,1834.0,1755.0,1742.0,1753.0,1723.0,82.04631805419922,-18.75209617614746,-73.03238677978516,Left
2324.922119140625,68386,1,1789.0,1749.0,1758.0,1913.0,1752.0,1752.0,1753.0,1769.0,82.04631805419922,-18.75209617614746,-73.03238677978516,Left
2326.922119140625,68386,1,1769.0,1757.0,1749.0,1897.0,1756.0,1751.0,1765.0,1773.0,82.04631805419922,-18.75209617614746,-73.03238677978516,Left
2326.817138671875,68387,1,1724.0,1761.0,1755.0,1827.0,1771.0,1745.0,1763.0,1764.0,82.04631805419922,-18.75209617614746,-73.03238677978516,Left
2328.817138671875,68387,1,1720.0,1756.0,1751.0,1765.0,1725.0,1749.0,1764.0,1755.0,82.08418273925781,-18.7687931060791,-72.87570190429688,Left
2330.817138671875,68387,1,1707.0,1756.0,1769.0,1811.0,1711.0,1742.0,1765.0,1749.0,82.08418273925781,-18.7687931060791,-72.87570190429688,Left
2332.817138671875,68387,1,1725.0,1755.0,1769.0,1752.0,1741.0,1753.0,1763.0,1726.0,82.08418273925781,-18.7687931060791,-72.87570190429688,Left
2334.817138671875,68387,1,1757.0,1756.0,1768.0,1677.0,1768.0,1753.0,1765.0,1754.0,82.08418273925781,-18.7687931060791,-72.87570190429688,Left
2336.56689453125,68388,1,1785.0,1753.0,1762.0,1752.0,1747.0,1752.0,1763.0,1750.0,82.08418273925781,-18.7687931060791,-72.87570190429688,Left
2338.56689453125,68388,1,1803.0,1757.0,1753.0,1743.0,1709.0,1750.0,1756.0,1743.0,82.08418273925781,-18.7687931060791,-72.87570190429688,Left
2340.56689453125,68388,1,1807.0,1757.0,1740.0,1737.0,1749.0,1753.0,1766.0,1743.0,82.08418273925781,-18.7687931060791,-72.87570190429688,Left
2342.56689453125,68388,1,1788.0,1755.0,1743.0,1755.0,1773.0,1751.0,1765.0,1742.0,82.08418273925781,-18.7687931060791,-72.87570190429688,Left
2344.56689453125,68388,1,1765.0,1757.0,1725.0,1839.0,1761.0,1753.0,1764.0,1747.0,82.08418273925781,-18.7687931060791,-72.87570190429688,Left
2352.6689453125,68389,1,1727.0,1758.0,1721.0,1727.0,1749.0,1754.0,1757.0,1742.0,82.08418273925781,-18.7687931060791,-72.87570190429688,Left
2354.6689453125,68389,1,1719.0,1752.0,1751.0,1708.0,1755.0,1753.0,1767.0,1756.0,82.08418273925781,-18.7687931060791,-72.87570190429688,Left
2356.6689453125,68389,1,1710.0,1757.0,1753.0,1683.0,1743.0,1752.0,1764.0,1739.0,82.08418273925781,-18.7687931060791,-72.87570190429688,Left
2358.6689453125,68389,1,1719.0,1749.0,1771.0,1723.0,1838.0,1742.0,1763.0,1747.0,82.08418273925781,-18.7687931060791,-72.87570190429688,Left
2360.6689453125,68389,1,1754.0,1757.0,1774.0,1784.0,1651.0,1753.0,1757.0,1763.0,82.08418273925781,-18.7687931060791,-72.87570190429688,Left
2356.745849609375,68390,1,1783.0,1759.0,1783.0,1788.0,1707.0,1755.0,1755.0,1779.0,82.08418273925781,-18.7687931060791,-72.87570190429688,Left
2358.745849609375,68390,1,1801.0,1757.0,1780.0,1725.0,1785.0,1752.0,1763.0,1773.0,82.08418273925781,-18.7687931060791,-72.87570190429688,Left
2360.745849609375,68390,1,1806.0,1755.0,1775.0,1721.0,1785.0,1751.0,1765.0,1755.0,82.08418273925781,-18.7687931060791,-72.87570190429688,Left
2362.745849609375,68390,1,1791.0,1763.0,1775.0,1737.0,1684.0,1749.0,1764.0,1755.0,82.08418273925781,-18.7687931060791,-72.87570190429688,Left
2364.745849609375,68390,1,1769.0,1759.0,1717.0,1715.0,1756.0,1751.0,1764.0,1753.0,82.08418273925781,-18.7687931060791,-72.87570190429688,Left
2367.9921875,68391,1,1735.0,1749.0,1723.0,1831.0,1806.0,1753.0,1764.0,1717.0,82.08418273925781,-18.7687931060791,-72.87570190429688,Left
2369.9921875,68391,1,1709.0,1757.0,1692.0,1791.0,1785.0,1751.0,1756.0,1735.0,82.08418273925781,-18.7687931060791,-72.87570190429688,Left
2371.9921875,68391,1,1701.0,1757.0,1739.0,1784.0,1650.0,1752.0,1755.0,1768.0,82.08418273925781,-18.7687931060791,-72.87570190429688,Left
2373.9921875,68391,1,1721.0,1754.0,1785.0,1802.0,1699.0,1753.0,1755.0,1761.0,82.08418273925781,-18.7687931060791,-72.87570190429688,Left
2375.9921875,68391,1,1751.0,1755.0,1810.0,1765.0,1669.0,1751.0,1755.0,1739.0,82.08418273925781,-18.7687931060791,-72.87570190429688,Left
2378.56201171875,68392,1,1770.0,1757.0,1727.0,1736.0,1783.0,1747.0,1759.0,1755.0,82.08418273925781,-18.7687931060791,-72.87570190429688,Left
2380.56201171875,68392,1,1787.0,1757.0,1785.0,1699.0,1695.0,1756.0,1762.0,1771.0,82.08418273925781,-18.7687931060791,-72.87570190429688,Left
2382.56201171875,68392,1,1799.0,1756.0,1733.0,1710.0,1849.0,1755.0,1767.0,1711.0,82.08418273925781,-18.7687931060791,-72.87570190429688,Left
2384.56201171875,68392,1,1785.0,1759.0,1751.0,1836.0,1965.0,1755.0,1765.0,1765.0,82.08418273925781,-18.7687931060791,-72.87570190429688,Left
2386.56201171875,68392,1,1763.0,1759.0,1801.0,1887.0,1893.0,1751.0,1765.0,1799.0,82.08418273925781,-18.7687931060791,-72.87570190429688,Left
2390.759033203125,68393,1,1749.0,1752.0,1765.0,1869.0,1580.0,1749.0,1758.0,1711.0,82.08418273925781,-18.7687931060791,-72.87570190429688,Left
2392.759033203125,68393,1,1707.0,1756.0,1719.0,1746.0,1471.0,1754.0,1756.0,1727.0,82.08418273925781,-18.7687931060791,-72.87570190429688,Left
2394.759033203125,68393,1,1699.0,1755.0,1702.0,1653.0,1663.0,1739.0,1755.0,1749.0,82.08418273925781,-18.7687931060791,-72.87570190429688,Left
2396.759033203125,68393,1,1715.0,1750.0,1762.0,1755.0,1671.0,1741.0,1763.0,1739.0,82.08418273925781,-18.7687931060791,-72.87570190429688,Left
2398.759033203125,68393,1,1735.0,1757.0,1753.0,1755.0,1966.0,1753.0,1755.0,1722.0,81.66044616699219,-19.173171997070312,-71.93965148925781,Left
2396.10302734375,68394,1,1771.0,1749.0,1788.0,1740.0,2356.0,1752.0,1761.0,1788.0,81.66044616699219,-19.173171997070312,-71.93965148925781,Left
2398.10302734375,68394,1,1785.0,1749.0,1817.0,1772.0,1623.0,1755.0,1754.0,1773.0,81.66044616699219,-19.173171997070312,-71.93965148925781,Left
2400.10302734375,68394,1,1789.0,1755.0,1789.0,1769.0,1367.0,1755.0,1763.0,1740.0,81.66044616699219,-19.173171997070312,-71.93965148925781,Left
2402.10302734375,68394,1,1767.0,1757.0,1766.0,1805.0,1867.0,1753.0,1755.0,1733.0,81.66044616699219,-19.173171997070312,-71.93965148925781,Left
2404.10302734375,68394,1,1736.0,1759.0,1723.0,1788.0,2021.0,1752.0,1764.0,1740.0,81.66044616699219,-19.173171997070312,-71.93965148925781,Left
2406.701171875,68395,1,1705.0,1758.0,1783.0,1799.0,1333.0,1748.0,1755.0,1801.0,81.66044616699219,-19.173171997070312,-71.93965148925781,Left
2408.701171875,68395,1,1687.0,1757.0,1783.0,1865.0,1703.0,1752.0,1765.0,1765.0,81.66044616699219,-19.173171997070312,-71.93965148925781,Left
2410.701171875,68395,1,1685.0,1757.0,1719.0,1641.0,1911.0,1751.0,1763.0,1739.0,81.66044616699219,-19.173171997070312,-71.93965148925781,Left
2412.701171875,68395,1,1695.0,1751.0,1771.0,1659.0,2057.0,1742.0,1766.0,1756.0,81.66044616699219,-19.173171997070312,-71.93965148925781,Left
2414.701171875,68395,1,1719.0,1757.0,1747.0,1675.0,1637.0,1753.0,1767.0,1724.0,81.66044616699219,-19.173171997070312,-71.93965148925781,Left
2416.449951171875,68396,1,1721.0,1755.0,1776.0,1695.0,1515.0,1754.0,1753.0,1751.0,81.66044616699219,-19.173171997070312,-71.93965148925781,Left
2418.449951171875,68396,1,1779.0,1755.0,1782.0,1737.0,1695.0,1754.0,1765.0,1764.0,81.66044616699219,-19.173171997070312,-71.93965148925781,Left
2420.449951171875,68396,1,1783.0,1749.0,1775.0,1803.0,1947.0,1753.0,1763.0,1775.0,81.66044616699219,-19.173171997070312,-71.93965148925781,Left
2422.449951171875,68396,1,1763.0,1757.0,1734.0,1775.0,1843.0,1749.0,1763.0,1739.0,81.66044616699219,-19.173171997070312,-71.93965148925781,Left
2424.449951171875,68396,1,1753.0,1757.0,1756.0,1787.0,1597.0,1749.0,1763.0,1757.0,81.66044616699219,-19.173171997070312,-71.93965148925781,Left
2426.72998046875,68397,1,1716.0,1754.0,1771.0,1787.0,1427.0,1741.0,1754.0,1800.0,81.66044616699219,-19.173171997070312,-71.93965148925781,Left
2428.72998046875,68397,1,1703.0,1759.0,1743.0,1831.0,1727.0,1753.0,1763.0,1725.0,81.66044616699219,-19.173171997070312,-71.93965148925781,Left
2430.72998046875,68397,1,1695.0,1757.0,1725.0,1738.0,1933.0,1756.0,1753.0,1707.0,81.66044616699219,-19.173171997070312,-71.93965148925781,Left
2432.72998046875,68397,1,1711.0,1759.0,1799.0,1863.0,1763.0,1752.0,1767.0,1769.0,81.66044616699219,-19.173171997070312,-71.93965148925781,Left
2434.72998046875,68397,1,1748.0,1759.0,1801.0,1801.0,1583.0,1753.0,1766.0,1753.0,81.66044616699219,-19.173171997070312,-71.93965148925781,Left
2439.6328125,68398,1,1771.0,1755.0,1767.0,1699.0,1829.0,1743.0,1762.0,1721.0,81.66044616699219,-19.173171997070312,-71.93965148925781,Left
2441.6328125,68398,1,1790.0,1757.0,1742.0,1707.0,2060.0,1750.0,1763.0,1756.0,81.66044616699219,-19.173171997070312,-71.93965148925781,Left
2443.6328125,68398,1,1811.0,1751.0,1721.0,1677.0,1637.0,1753.0,1765.0,1763.0,81.66044616699219,-19.173171997070312,-71.93965148925781,Left
2445.6328125,68398,1,1791.0,1758.0,1769.0,1792.0,1799.0,1752.0,1753.0,1781.0,81.66044616699219,-19.173171997070312,-71.93965148925781,Left
2447.6328125,68398,1,1763.0,1759.0,1752.0,1799.0,1899.0,1753.0,1765.0,1763.0,81.66044616699219,-19.173171997070312,-71.93965148925781,Left
2447.430908203125,68399,1,1735.0,1756.0,1693.0,1724.0,1998.0,1749.0,1763.0,1727.0,81.66044616699219,-19.173171997070312,-71.93965148925781,Left
2449.430908203125,68399,1,1710.0,1759.0,1758.0,1833.0,1617.0,1751.0,1767.0,1727.0,81.66044616699219,-19.173171997070312,-71.93965148925781,Left
2451.430908203125,68399,1,1693.0,1757.0,1753.0,1871.0,1423.0,1755.0,1763.0,1754.0,81.66044616699219,-19.173171997070312,-71.93965148925781,Left
2453.430908203125,68399,1,1712.0,1755.0,1799.0,1957.0,1581.0,1752.0,1755.0,1721.0,81.66044616699219,-19.173171997070312,-71.93965148925781,Left
2455.430908203125,68399,1,1735.0,1749.0,1805.0,1893.0,1843.0,1751.0,1765.0,1754.0,81.66044616699219,-19.173171997070312,-71.93965148925781,Left
2457.54296875,68400,1,1771.0,1752.0,1753.0,1787.0,1755.0,1750.0,1763.0,1765.0,81.66044616699219,-19.173171997070312,-71.93965148925781,Left
2459.54296875,68400,1,1797.0,1757.0,1765.0,1832.0,1757.0,1755.0,1766.0,1767.0,82.68292236328125,-21.370147705078125,-71.36599731445312,Left
2461.54296875,68400,1,1803.0,1756.0,1749.0,1967.0,1695.0,1751.0,1763.0,1738.0,82.68292236328125,-21.370147705078125,-71.36599731445312,Left
2463.54296875,68400,1,1786.0,1759.0,1768.0,2074.0,1364.0,1754.0,1763.0,1781.0,82.68292236328125,-21.370147705078125,-71.36599731445312,Left
2465.54296875,68400,1,1759.0,1759.0,1733.0,2220.0,1903.0,1753.0,1754.0,1752.0,82.68292236328125,-21.370147705078125,-71.36599731445312,Left
2468.52294921875,68401,1,1717.0,1753.0,1695.0,2083.0,2013.0,1753.0,1756.0,1725.0,82.68292236328125,-21.370147705078125,-71.36599731445312,Left
2470.52294921875,68401,1,1691.0,1755.0,1767.0,2087.0,1831.0,1754.0,1767.0,1765.0,82.68292236328125,-21.370147705078125,-71.36599731445312,Left
2472.52294921875,68401,1,1655.0,1755.0,1767.0,2052.0,2279.0,1745.0,1765.0,1739.0,82.68292236328125,-21.370147705078125,-71.36599731445312,Left
2474.52294921875,68401,1,1653.0,1757.0,1812.0,1880.0,1669.0,1752.0,1765.0,1759.0,82.68292236328125,-21.370147705078125,-71.36599731445312,Left
2476.52294921875,68401,1,1688.0,1755.0,1789.0,1909.0,1679.0,1753.0,1767.0,1737.0,82.68292236328125,-21.370147705078125,-71.36599731445312,Left
2478.012939453125,68402,1,1737.0,1764.0,1762.0,1837.0,1365.0,1753.0,1767.0,1717.0,82.68292236328125,-21.370147705078125,-71.36599731445312,Left
2480.012939453125,68402,1,1738.0,1758.0,1790.0,1824.0,1577.0,1753.0,1763.0,1752.0,82.68292236328125,-21.370147705078125,-71.36599731445312,Left
2482.012939453125,68402,1,1749.0,1755.0,1750.0,1779.0,1701.0,1742.0,1765.0,1739.0,82.68292236328125,-21.370147705078125,-71.36599731445312,Left
2484.012939453125,68402,1,1747.0,1758.0,1737.0,1775.0,1763.0,1750.0,1767.0,1718.0,82.68292236328125,-21.370147705078125,-71.36599731445312,Left
2486.012939453125,68402,1,1719.0,1757.0,1725.0,1709.0,1797.0,1753.0,1763.0,1735.0,82.68292236328125,-21.370147705078125,-71.36599731445312,Left
2490.64990234375,68403,1,1691.0,1759.0,1779.0,1671.0,1636.0,1749.0,1765.0,1755.0,82.68292236328125,-21.370147705078125,-71.36599731445312,Left
2492.64990234375,68403,1,1681.0,1754.0,1710.0,1700.0,1915.0,1751.0,1765.0,1735.0,82.68292236328125,-21.370147705078125,-71.36599731445312,Left
2494.64990234375,68403,1,1668.0,1757.0,1765.0,1725.0,1875.0,1754.0,1762.0,1811.0,82.68292236328125,-21.370147705078125,-71.36599731445312,Left
2496.64990234375,68403,1,1691.0,1751.0,1802.0,1677.0,1468.0,1754.0,1764.0,1757.0,82.68292236328125,-21.370147705078125,-71.36599731445312,Left
2498.64990234375,68403,1,1724.0,1755.0,1762.0,1687.0,1663.0,1753.0,1759.0,1709.0,82.68292236328125,-21.370147705078125,-71.36599731445312,Left
2497.399169921875,68404,1,1759.0,1755.0,1757.0,1774.0,1939.0,1738.0,1755.0,1753.0,82.68292236328125,-21.370147705078125,-71.36599731445312,Left
2499.399169921875,68404,1,1791.0,1757.0,1740.0,1775.0,1525.0,1754.0,1765.0,1735.0,82.68292236328125,-21.370147705078125,-71.36599731445312,Left
2501.399169921875,68404,1,1813.0,1757.0,1749.0,1736.0,1575.0,1755.0,1755.0,1755.0,82.68292236328125,-21.370147705078125,-71.36599731445312,Left
2503.399169921875,68404,1,1789.0,1758.0,1765.0,1818.0,1853.0,1753.0,1755.0,1753.0,82.68292236328125,-21.370147705078125,-71.36599731445312,Left
2505.399169921875,68404,1,1779.0,1748.0,1709.0,1914.0,1655.0,1753.0,1766.0,1701.0,82.68292236328125,-21.370147705078125,-71.36599731445312,Left
2507.416748046875,68405,1,1741.0,1753.0,1734.0,1980.0,1951.0,1753.0,1765.0,1765.0,82.68292236328125,-21.370147705078125,-71.36599731445312,Left
2509.416748046875,68405,1,1716.0,1749.0,1754.0,2021.0,1559.0,1743.0,1764.0,1736.0,82.68292236328125,-21.370147705078125,-71.36599731445312,Left
2511.416748046875,68405,1,1699.0,1757.0,1736.0,1957.0,1301.0,1752.0,1763.0,1785.0,82.68292236328125,-21.370147705078125,-71.36599731445312,Left
2513.416748046875,68405,1,1719.0,1751.0,1767.0,1853.0,2531.0,1749.0,1755.0,1737.0,82.68292236328125,-21.370147705078125,-71.36599731445312,Left
2515.416748046875,68405,1,1751.0,1755.0,1787.0,1781.0,2137.0,1752.0,1767.0,1741.0,82.68292236328125,-21.370147705078125,-71.36599731445312,Left
2520.24072265625,68406,1,1789.0,1765.0,1725.0,1771.0,1263.0,1756.0,1765.0,1749.0,82.68292236328125,-21.370147705078125,-71.36599731445312,Left
2522.24072265625,68406,1,1816.0,1756.0,1765.0,1604.0,1499.0,1745.0,1753.0,1753.0,82.68292236328125,-21.370147705078125,-71.36599731445312,Left
2524.24072265625,68406,1,1827.0,1757.0,1771.0,1577.0,2027.0,1752.0,1753.0,1756.0,82.68292236328125,-21.370147705078125,-71.36599731445312,Left
2526.24072265625,68406,1,1812.0,1757.0,1755.0,1506.0,1828.0,1752.0,1755.0,1757.0,93.20030975341797,-21.09627914428711,-66.97821044921875,Left
2528.24072265625,68406,1,1785.0,1750.0,1748.0,1555.0,1739.0,1755.0,1755.0,1757.0,93.20030975341797,-21.09627914428711,-66.97821044921875,Left
2527.31396484375,68407,1,1747.0,1749.0,1718.0,1651.0,1404.0,1743.0,1765.0,1712.0,93.20030975341797,-21.09627914428711,-66.97821044921875,Left
2529.31396484375,68407,1,1719.0,1759.0,1723.0,1647.0,1305.0,1753.0,1767.0,1755.0,93.20030975341797,-21.09627914428711,-66.97821044921875,Left
2531.31396484375,68407,1,1692.0,1753.0,1765.0,1559.0,2002.0,1749.0,1753.0,1779.0,93.20030975341797,-21.09627914428711,-66.97821044921875,Left
2533.31396484375,68407,1,1706.0,1757.0,1783.0,1547.0,2333.0,1743.0,1763.0,1769.0,93.20030975341797,-21.09627914428711,-66.97821044921875,Left
2535.31396484375,68407,1,1749.0,1759.0,1775.0,1575.0,1629.0,1753.0,1766.0,1739.0,93.20030975341797,-21.09627914428711,-66.97821044921875,Left
2537.81201171875,68408,1,1789.0,1740.0,1781.0,1514.0,1580.0,1743.0,1763.0,1747.0,93.20030975341797,-21.09627914428711,-66.97821044921875,Left
2539.81201171875,68408,1,1807.0,1759.0,1783.0,1523.0,1543.0,1743.0,1763.0,1736.0,93.20030975341797,-21.09627914428711,-66.97821044921875,Left
2541.81201171875,68408,1,1831.0,1755.0,1769.0,1447.0,1864.0,1752.0,1765.0,1725.0,93.20030975341797,-21.09627914428711,-66.97821044921875,Left
2543.81201171875,68408,1,1814.0,1756.0,1725.0,1511.0,1949.0,1751.0,1754.0,1763.0,93.20030975341797,-21.09627914428711,-66.97821044921875,Left
2545.81201171875,68408,1,1779.0,1758.0,1696.0,1435.0,1847.0,1753.0,1767.0,1764.0,93.20030975341797,-21.09627914428711,-66.97821044921875,Left
2547.557861328125,68409,1,1741.0,1769.0,1745.0,1570.0,1563.0,1751.0,1762.0,1772.0,93.20030975341797,-21.09627914428711,-66.97821044921875,Left
2549.557861328125,68409,1,1717.0,1750.0,1775.0,1640.0,1557.0,1751.0,1763.0,1755.0,93.20030975341797,-21.09627914428711,-66.97821044921875,Left
2551.557861328125,68409,1,1700.0,1755.0,1767.0,1620.0,1900.0,1751.0,1765.0,1763.0,93.20030975341797,-21.09627914428711,-66.97821044921875,Left
2553.557861328125,68409,1,1716.0,1757.0,1779.0,1615.0,1727.0,1753.0,1763.0,1745.0,93.20030975341797,-21.09627914428711,-66.97821044921875,Left
2555.557861328125,68409,1,1749.0,1756.0,1775.0,1580.0,1768.0,1743.0,1764.0,1754.0,93.20030975341797,-21.09627914428711,-66.97821044921875,Left
2557.77392578125,68410,1,1785.0,1765.0,1781.0,1671.0,1635.0,1755.0,1765.0,1727.0,93.20030975341797,-21.09627914428711,-66.97821044921875,Left
2559.77392578125,68410,1,1820.0,1753.0,1751.0,1599.0,1981.0,1751.0,1763.0,1717.0,93.20030975341797,-21.09627914428711,-66.97821044921875,Left
2561.77392578125,68410,1,1831.0,1758.0,1753.0,1612.0,1776.0,1746.0,1765.0,1753.0,93.20030975341797,-21.09627914428711,-66.97821044921875,Left
2563.77392578125,68410,1,1811.0,1757.0,1765.0,1645.0,1706.0,1749.0,1759.0,1796.0,93.20030975341797,-21.09627914428711,-66.97821044921875,Left
2565.77392578125,68410,1,1787.0,1757.0,1753.0,1704.0,1919.0,1755.0,1756.0,1763.0,93.20030975341797,-21.09627914428711,-66.97821044921875,Left
2566.802001953125,68411,1,1747.0,1757.0,1719.0,1701.0,1609.0,1752.0,1763.0,1719.0,93.20030975341797,-21.09627914428711,-66.97821044921875,Left
2568.802001953125,68411,1,1712.0,1757.0,1735.0,1712.0,1695.0,1752.0,1759.0,1741.0,93.20030975341797,-21.09627914428711,-66.97821044921875,Left
2570.802001953125,68411,1,1703.0,1759.0,1747.0,1743.0,1931.0,1750.0,1767.0,1752.0,93.20030975341797,-21.09627914428711,-66.97821044921875,Left
2572.802001953125,68411,1,1719.0,1754.0,1783.0,1811.0,1829.0,1753.0,1763.0,1747.0,93.20030975341797,-21.09627914428711,-66.97821044921875,Left
2574.802001953125,68411,1,1750.0,1759.0,1785.0,1783.0,1677.0,1750.0,1763.0,1741.0,93.20030975341797,-21.09627914428711,-66.97821044921875,Left
2576.592041015625,68412,1,1789.0,1757.0,1781.0,1778.0,1673.0,1752.0,1753.0,1740.0,93.20030975341797,-21.09627914428711,-66.97821044921875,Left
2578.592041015625,68412,1,1822.0,1756.0,1767.0,1751.0,1733.0,1752.0,1765.0,1748.0,93.20030975341797,-21.09627914428711,-66.97821044921875,Left
2580.592041015625,68412,1,1839.0,1757.0,1769.0,1757.0,1719.0,1747.0,1763.0,1743.0,93.20030975341797,-21.09627914428711,-66.97821044921875,Left
2582.592041015625,68412,1,1823.0,1757.0,1781.0,1839.0,1787.0,1753.0,1761.0,1773.0,93.20030975341797,-21.09627914428711,-66.97821044921875,Left
2584.592041015625,68412,1,1797.0,1759.0,1743.0,1801.0,1788.0,1747.0,1753.0,1749.0,93.20030975341797,-21.09627914428711,-66.97821044921875,Left
2588.109619140625,68413,1,1751.0,1758.0,1721.0,1855.0,1738.0,1752.0,1763.0,1738.0,93.20030975341797,-21.09627914428711,-66.97821044921875,Left
2590.109619140625,68413,1,1721.0,1759.0,1717.0,1879.0,1717.0,1753.0,1757.0,1705.0,93.20030975341797,-21.09627914428711,-66.97821044921875,Left
2592.109619140625,68413,1,1700.0,1750.0,1709.0,1893.0,1607.0,1755.0,1765.0,1762.0,93.20030975341797,-21.09627914428711,-66.97821044921875,Left
2594.109619140625,68413,1,1717.0,1758.0,1801.0,1803.0,1785.0,1752.0,1755.0,1757.0,97.17662048339844,-20.08952522277832,-61.552791595458984,Left
2596.109619140625,68413,1,1748.0,1757.0,1748.0,1589.0,2013.0,1743.0,1762.0,1784.0,97.17662048339844,-20.08952522277832,-61.552791595458984,Left
2596.309814453125,68414,1,1763.0,1752.0,1786.0,1705.0,1617.0,1751.0,1761.0,1752.0,97.17662048339844,-20.08952522277832,-61.552791595458984,Left
2598.309814453125,68414,1,1819.0,1755.0,1768.0,1743.0,1465.0,1753.0,1763.0,1739.0,97.17662048339844,-20.08952522277832,-61.552791595458984,Left
2600.309814453125,68414,1,1839.0,1756.0,1724.0,1719.0,1783.0,1750.0,1763.0,1719.0,97.17662048339844,-20.08952522277832,-61.552791595458984,Left
2602.309814453125,68414,1,1816.0,1749.0,1749.0,1771.0,2069.0,1753.0,1767.0,1785.0,97.17662048339844,-20.08952522277832,-61.552791595458984,Left
2604.309814453125,68414,1,1787.0,1754.0,1780.0,1755.0,1655.0,1743.0,1763.0,1769.0,97.17662048339844,-20.08952522277832,-61.552791595458984,Left
2609.87890625,68415,1,1751.0,1767.0,1753.0,1785.0,1727.0,1751.0,1755.0,1764.0,97.17662048339844,-20.08952522277832,-61.552791595458984,Left
2611.87890625,68415,1,1727.0,1757.0,1745.0,1813.0,1701.0,1753.0,1763.0,1725.0,97.17662048339844,-20.08952522277832,-61.552791595458984,Left
2613.87890625,68415,1,1706.0,1759.0,1743.0,1854.0,1707.0,1753.0,1763.0,1739.0,97.17662048339844,-20.08952522277832,-61.552791595458984,Left
2615.87890625,68415,1,1719.0,1755.0,1755.0,1803.0,1703.0,1755.0,1765.0,1748.0,97.17662048339844,-20.08952522277832,-61.552791595458984,Left
2617.87890625,68415,1,1749.0,1757.0,1772.0,1656.0,1930.0,1753.0,1764.0,1735.0,97.17662048339844,-20.08952522277832,-61.552791595458984,Left
2618.457763671875,68416,1,1802.0,1757.0,1785.0,1659.0,1815.0,1755.0,1763.0,1772.0,97.17662048339844,-20.08952522277832,-61.552791595458984,Left
2620.457763671875,68416,1,1827.0,1757.0,1771.0,1660.0,1757.0,1753.0,1765.0,1753.0,97.17662048339844,-20.08952522277832,-61.552791595458984,Left
2622.457763671875,68416,1,1837.0,1755.0,1791.0,1625.0,1685.0,1752.0,1764.0,1759.0,97.17662048339844,-20.08952522277832,-61.552791595458984,Left
2624.457763671875,68416,1,1823.0,1749.0,1755.0,1659.0,1703.0,1751.0,1758.0,1745.0,97.17662048339844,-20.08952522277832,-61.552791595458984,Left
2626.457763671875,68416,1,1801.0,1755.0,1727.0,1700.0,1747.0,1751.0,1765.0,1747.0,97.17662048339844,-20.08952522277832,-61.552791595458984,Left
2626.494873046875,68417,1,1755.0,1755.0,1743.0,1733.0,1851.0,1747.0,1763.0,1775.0,97.17662048339844,-20.08952522277832,-61.552791595458984,Left
2628.494873046875,68417,1,1719.0,1757.0,1762.0,1799.0,1675.0,1751.0,1754.0,1757.0,97.17662048339844,-20.08952522277832,-61.552791595458984,Left
2630.494873046875,68417,1,1705.0,1759.0,1745.0,1895.0,1803.0,1751.0,1764.0,1741.0,97.17662048339844,-20.08952522277832,-61.552791595458984,Left
2632.494873046875,68417,1,1709.0,1755.0,1774.0,1802.0,1705.0,1751.0,1763.0,1755.0,97.17662048339844,-20.08952522277832,-61.552791595458984,Left
2634.494873046875,68417,1,1741.0,1756.0,1775.0,1770.0,1799.0,1751.0,1763.0,1757.0,97.17662048339844,-20.08952522277832,-61.552791595458984,Left
2637.154052734375,68418,1,1801.0,1757.0,1765.0,1705.0,1832.0,1753.0,1761.0,1723.0,97.17662048339844,-20.08952522277832,-61.552791595458984,Left
2639.154052734375,68418,1,1821.0,1757.0,1797.0,1619.0,1871.0,1754.0,1763.0,1780.0,97.17662048339844,-20.08952522277832,-61.552791595458984,Left
2641.154052734375,68418,1,1835.0,1749.0,1759.0,1653.0,1643.0,1755.0,1763.0,1747.0,97.17662048339844,-20.08952522277832,-61.552791595458984,Left
2643.154052734375,68418,1,1823.0,1757.0,1741.0,1645.0,1709.0,1753.0,1759.0,1735.0,97.17662048339844,-20.08952522277832,-61.552791595458984,Left
2645.154052734375,68418,1,1791.0,1757.0,1727.0,1703.0,1673.0,1755.0,1765.0,1747.0,97.17662048339844,-20.08952522277832,-61.552791595458984,Left
2652.001220703125,68419,1,1752.0,1749.0,1757.0,1791.0,1735.0,1745.0,1767.0,1763.0,97.17662048339844,-20.08952522277832,-61.552791595458984,Left
2654.001220703125,68419,1,1727.0,1757.0,1757.0,1767.0,1871.0,1754.0,1767.0,1771.0,97.17662048339844,-20.08952522277832,-61.552791595458984,Left
2656.001220703125,68419,1,1700.0,1758.0,1762.0,1819.0,1705.0,1751.0,1762.0,1757.0,97.17662048339844,-20.08952522277832,-61.552791595458984,Left
2658.001220703125,68419,1,1715.0,1756.0,1773.0,1868.0,1685.0,1743.0,1764.0,1742.0,97.17662048339844,-20.08952522277832,-61.552791595458984,Left
2660.001220703125,68419,1,1747.0,1758.0,1765.0,1897.0,1778.0,1746.0,1763.0,1739.0,97.17662048339844,-20.08952522277832,-61.552791595458984,Left
2658.706787109375,68420,1,1799.0,1756.0,1775.0,1883.0,1818.0,1753.0,1759.0,1747.0,97.17662048339844,-20.08952522277832,-61.552791595458984,Left
2660.706787109375,68420,1,1821.0,1757.0,1765.0,1819.0,1723.0,1745.0,1765.0,1753.0,93.84847259521484,-19.953947067260742,-60.491058349609375,Left
2662.706787109375,68420,1,1834.0,1747.0,1770.0,1823.0,1767.0,1741.0,1765.0,1755.0,93.84847259521484,-19.953947067260742,-60.491058349609375,Left
2664.706787109375,68420,1,1823.0,1758.0,1749.0,1815.0,1741.0,1751.0,1756.0,1751.0,93.84847259521484,-19.953947067260742,-60.491058349609375,Left
2666.706787109375,68420,1,1789.0,1757.0,1739.0,1844.0,1767.0,1751.0,1764.0,1745.0,93.84847259521484,-19.953947067260742,-60.491058349609375,Left
2666.908935546875,68421,1,1754.0,1757.0,1738.0,1679.0,1718.0,1752.0,1755.0,1751.0,93.84847259521484,-19.953947067260742,-60.491058349609375,Left
2668.908935546875,68421,1,1720.0,1756.0,1749.0,1814.0,1757.0,1753.0,1763.0,1747.0,93.84847259521484,-19.953947067260742,-60.491058349609375,Left
2670.908935546875,68421,1,1705.0,1763.0,1747.0,1865.0,1756.0,1753.0,1762.0,1752.0,93.84847259521484,-19.953947067260742,-60.491058349609375,Left
2672.908935546875,68421,1,1715.0,1762.0,1763.0,1756.0,1771.0,1751.0,1759.0,1747.0,93.84847259521484,-19.953947067260742,-60.491058349609375,Left
2674.908935546875,68421,1,1727.0,1757.0,1779.0,1767.0,1775.0,1751.0,1765.0,1747.0,93.84847259521484,-19.953947067260742,-60.491058349609375,Left
2677.0888671875,68422,1,1781.0,1751.0,1787.0,1733.0,1711.0,1751.0,1765.0,1749.0,93.84847259521484,-19.953947067260742,-60.491058349609375,Left
2679.0888671875,68422,1,1819.0,1757.0,1786.0,1764.0,1813.0,1751.0,1764.0,1747.0,93.84847259521484,-19.953947067260742,-60.491058349609375,Left
2681.0888671875,68422,1,1827.0,1756.0,1788.0,1775.0,1721.0,1755.0,1763.0,1763.0,93.84847259521484,-19.953947067260742,-60.491058349609375,Left
2683.0888671875,68422,1,1821.0,1757.0,1755.0,1773.0,1694.0,1755.0,1755.0,1752.0,93.84847259521484,-19.953947067260742,-60.491058349609375,Left
2685.0888671875,68422,1,1799.0,1761.0,1725.0,1785.0,1893.0,1742.0,1763.0,1748.0,93.84847259521484,-19.953947067260742,-60.491058349609375,Left
2688.9609375,68423,1,1738.0,1763.0,1689.0,1764.0,1688.0,1754.0,1767.0,1769.0,93.84847259521484,-19.953947067260742,-60.491058349609375,Left
2690.9609375,68423,1,1725.0,1759.0,1752.0,1788.0,1748.0,1752.0,1763.0,1753.0,93.84847259521484,-19.953947067260742,-60.491058349609375,Left
2692.9609375,68423,1,1701.0,1757.0,1752.0,1721.0,1695.0,1749.0,1764.0,1747.0,93.84847259521484,-19.953947067260742,-60.491058349609375,Left
2694.9609375,68423,1,1703.0,1756.0,1741.0,1741.0,1636.0,1753.0,1753.0,1737.0,93.84847259521484,-19.953947067260742,-60.491058349609375,Left
2696.9609375,68423,1,1738.0,1756.0,1767.0,1623.0,1801.0,1753.0,1764.0,1723.0,93.84847259521484,-19.953947067260742,-60.491058349609375,Left
2696.349853515625,68424,1,1787.0,1756.0,1790.0,1739.0,1749.0,1755.0,1763.0,1736.0,93.84847259521484,-19.953947067260742,-60.491058349609375,Left
2698.349853515625,68424,1,1817.0,1749.0,1771.0,1662.0,1783.0,1755.0,1753.0,1747.0,93.84847259521484,-19.953947067260742,-60.491058349609375,Left
2700.349853515625,68424,1,1827.0,1758.0,1769.0,1779.0,1727.0,1743.0,1766.0,1769.0,93.84847259521484,-19.953947067260742,-60.491058349609375,Left
2702.349853515625,68424,1,1819.0,1751.0,1779.0,1762.0,1741.0,1751.0,1754.0,1761.0,93.84847259521484,-19.953947067260742,-60.491058349609375,Left
2704.349853515625,68424,1,1787.0,1755.0,1735.0,1830.0,1750.0,1754.0,1763.0,1715.0,93.84847259521484,-19.953947067260742,-60.491058349609375,Left
2708.5361328125,68425,1,1753.0,1765.0,1738.0,1829.0,1627.0,1755.0,1762.0,1736.0,93.84847259521484,-19.953947067260742,-60.491058349609375,Left
2710.5361328125,68425,1,1723.0,1757.0,1741.0,1797.0,1863.0,1753.0,1767.0,1767.0,93.84847259521484,-19.953947067260742,-60.491058349609375,Left
2712.5361328125,68425,1,1695.0,1762.0,1761.0,1726.0,1754.0,1753.0,1757.0,1765.0,93.84847259521484,-19.953947067260742,-60.491058349609375,Left
2714.5361328125,68425,1,1708.0,1758.0,1782.0,1727.0,1811.0,1753.0,1763.0,1773.0,93.84847259521484,-19.953947067260742,-60.491058349609375,Left
2716.5361328125,68425,1,1739.0,1749.0,1771.0,1823.0,1683.0,1753.0,1754.0,1739.0,93.84847259521484,-19.953947067260742,-60.491058349609375,Left
2716.278076171875,68426,1,1772.0,1765.0,1813.0,1895.0,1768.0,1752.0,1757.0,1748.0,93.84847259521484,-19.953947067260742,-60.491058349609375,Left
2718.278076171875,68426,1,1807.0,1753.0,1782.0,1852.0,1688.0,1751.0,1765.0,1755.0,93.84847259521484,-19.953947067260742,-60.491058349609375,Left
2720.278076171875,68426,1,1829.0,1756.0,1770.0,1835.0,1811.0,1754.0,1765.0,1758.0,93.84847259521484,-19.953947067260742,-60.491058349609375,Left
2722.278076171875,68426,1,1819.0,1757.0,1752.0,1811.0,1769.0,1755.0,1764.0,1737.0,93.69390869140625,-20.120203018188477,-61.69620895385742,Left
2724.278076171875,68426,1,1801.0,1759.0,1742.0,1911.0,1669.0,1743.0,1767.0,1762.0,93.69390869140625,-20.120203018188477,-61.69620895385742,Left
2728.33984375,68427,1,1739.0,1755.0,1727.0,1849.0,1597.0,1743.0,1767.0,1753.0,93.69390869140625,-20.120203018188477,-61.69620895385742,Left
2730.33984375,68427,1,1725.0,1750.0,1723.0,1818.0,1879.0,1751.0,1765.0,1735.0,93.69390869140625,-20.120203018188477,-61.69620895385742,Left
2732.33984375,68427,1,1701.0,1755.0,1757.0,1913.0,1850.0,1755.0,1763.0,1745.0,93.69390869140625,-20.120203018188477,-61.69620895385742,Left
2734.33984375,68427,1,1709.0,1757.0,1763.0,1827.0,1782.0,1752.0,1767.0,1752.0,93.69390869140625,-20.120203018188477,-61.69620895385742,Left
2736.33984375,68427,1,1735.0,1749.0,1772.0,1711.0,1683.0,1751.0,1765.0,1741.0,93.69390869140625,-20.120203018188477,-61.69620895385742,Left
2738.315185546875,68428,1,1783.0,1752.0,1785.0,1751.0,1702.0,1737.0,1752.0,1723.0,93.69390869140625,-20.120203018188477,-61.69620895385742,Left
2740.315185546875,68428,1,1814.0,1757.0,1765.0,1675.0,2041.0,1753.0,1753.0,1757.0,93.69390869140625,-20.120203018188477,-61.69620895385742,Left
2742.315185546875,68428,1,1829.0,1762.0,1775.0,1588.0,1631.0,1753.0,1753.0,1765.0,93.69390869140625,-20.120203018188477,-61.69620895385742,Left
2744.315185546875,68428,1,1821.0,1758.0,1747.0,1593.0,1819.0,1751.0,1755.0,1741.0,93.69390869140625,-20.120203018188477,-61.69620895385742,Left
2746.315185546875,68428,1,1800.0,1758.0,1747.0,1619.0,1677.0,1755.0,1767.0,1755.0,93.69390869140625,-20.120203018188477,-61.69620895385742,Left
2746.5869140625,68429,1,1739.0,1766.0,1742.0,1723.0,1751.0,1748.0,1759.0,1749.0,93.69390869140625,-20.120203018188477,-61.69620895385742,Left
2748.5869140625,68429,1,1723.0,1757.0,1735.0,1770.0,1647.0,1755.0,1767.0,1755.0,93.69390869140625,-20.120203018188477,-61.69620895385742,Left
2750.5869140625,68429,1,1701.0,1749.0,1757.0,1779.0,1653.0,1743.0,1764.0,1749.0,93.69390869140625,-20.120203018188477,-61.69620895385742,Left
2752.5869140625,68429,1,1705.0,1761.0,1757.0,1755.0,1865.0,1754.0,1756.0,1741.0,93.69390869140625,-20.120203018188477,-61.69620895385742,Left
2754.5869140625,68429,1,1721.0,1759.0,1752.0,1695.0,1814.0,1751.0,1759.0,1735.0,93.69390869140625,-20.120203018188477,-61.69620895385742,Left
2759.376953125,68430,1,1779.0,1751.0,1785.0,1703.0,1781.0,1750.0,1767.0,1752.0,93.69390869140625,-20.120203018188477,-61.69620895385742,Left
2761.376953125,68430,1,1811.0,1755.0,1765.0,1711.0,1701.0,1753.0,1755.0,1748.0,93.69390869140625,-20.120203018188477,-61.69620895385742,Left
2763.376953125,68430,1,1823.0,1759.0,1769.0,1707.0,1725.0,1753.0,1759.0,1749.0,93.69390869140625,-20.120203018188477,-61.69620895385742,Left
2765.376953125,68430,1,1820.0,1759.0,1758.0,1684.0,1818.0,1751.0,1766.0,1757.0,93.69390869140625,-20.120203018188477,-61.69620895385742,Left
2767.376953125,68430,1,1797.0,1761.0,1737.0,1780.0,1784.0,1751.0,1763.0,1735.0,93.69390869140625,-20.120203018188477,-61.69620895385742,Left
2768.134765625,68431,1,1751.0,1753.0,1749.0,1753.0,1803.0,1743.0,1763.0,1764.0,93.69390869140625,-20.120203018188477,-61.69620895385742,Left
2770.134765625,68431,1,1722.0,1751.0,1745.0,1775.0,1718.0,1751.0,1765.0,1763.0,93.69390869140625,-20.120203018188477,-61.69620895385742,Left
2772.134765625,68431,1,1692.0,1754.0,1751.0,1740.0,1739.0,1753.0,1763.0,1745.0,93.69390869140625,-20.120203018188477,-61.69620895385742,Left
2774.134765625,68431,1,1707.0,1756.0,1743.0,1717.0,1736.0,1753.0,1759.0,1747.0,93.69390869140625,-20.120203018188477,-61.69620895385742,Left
2776.134765625,68431,1,1726.0,1758.0,1770.0,1711.0,1774.0,1752.0,1765.0,1769.0,93.69390869140625,-20.120203018188477,-61.69620895385742,Left
2778.5419921875,68432,1,1779.0,1759.0,1775.0,1747.0,1755.0,1740.0,1759.0,1737.0,93.69390869140625,-20.120203018188477,-61.69620895385742,Left
2780.5419921875,68432,1,1813.0,1757.0,1765.0,1753.0,1721.0,1747.0,1763.0,1740.0,93.69390869140625,-20.120203018188477,-61.69620895385742,Left
2782.5419921875,68432,1,1829.0,1750.0,1739.0,1656.0,1801.0,1752.0,1753.0,1712.0,93.69390869140625,-20.120203018188477,-61.69620895385742,Left
2784.5419921875,68432,1,1817.0,1751.0,1723.0,1683.0,1673.0,1753.0,1765.0,1743.0,93.69390869140625,-20.120203018188477,-61.69620895385742,Left
2786.5419921875,68432,1,1799.0,1757.0,1743.0,1747.0,1739.0,1752.0,1763.0,1764.0,93.69390869140625,-20.120203018188477,-61.69620895385742,Left
2791.43505859375,68433,1,1762.0,1767.0,1756.0,1741.0,1735.0,1747.0,1763.0,1741.0,93.69390869140625,-20.120203018188477,-61.69620895385742,Left
2793.43505859375,68433,1,1719.0,1756.0,1756.0,1775.0,1711.0,1753.0,1765.0,1761.0,94.33051300048828,-20.88704490661621,-62.947021484375,Left
2795.43505859375,68433,1,1695.0,1757.0,1759.0,1769.0,1763.0,1747.0,1762.0,1740.0,94.33051300048828,-20.88704490661621,-62.947021484375,Left
2797.43505859375,68433,1,1709.0,1757.0,1773.0,1759.0,1807.0,1753.0,1765.0,1749.0,94.33051300048828,-20.88704490661621,-62.947021484375,Left
2799.43505859375,68433,1,1725.0,1759.0,1779.0,1828.0,1749.0,1752.0,1763.0,1755.0,94.33051300048828,-20.88704490661621,-62.947021484375,Left
2803.657958984375,68434,1,1772.0,1757.0,1763.0,1748.0,1739.0,1751.0,1763.0,1747.0,94.33051300048828,-20.88704490661621,-62.947021484375,Left
2805.657958984375,68434,1,1811.0,1759.0,1785.0,1711.0,1695.0,1752.0,1763.0,1755.0,94.33051300048828,-20.88704490661621,-62.947021484375,Left
2807.657958984375,68434,1,1821.0,1755.0,1773.0,1765.0,1811.0,1753.0,1763.0,1754.0,94.33051300048828,-20.88704490661621,-62.947021484375,Left
2809.657958984375,68434,1,1821.0,1757.0,1747.0,1747.0,1749.0,1752.0,1764.0,1717.0,94.33051300048828,-20.88704490661621,-62.947021484375,Left
2811.657958984375,68434,1,1801.0,1755.0,1741.0,1843.0,1801.0,1752.0,1763.0,1755.0,94.33051300048828,-20.88704490661621,-62.947021484375,Left
2812.271728515625,68435,1,1753.0,1763.0,1739.0,1860.0,1740.0,1752.0,1767.0,1767.0,94.33051300048828,-20.88704490661621,-62.947021484375,Left
2814.271728515625,68435,1,1723.0,1757.0,1737.0,1866.0,1747.0,1751.0,1759.0,1762.0,94.33051300048828,-20.88704490661621,-62.947021484375,Left
2816.271728515625,68435,1,1696.0,1757.0,1749.0,1979.0,1741.0,1751.0,1765.0,1767.0,94.33051300048828,-20.88704490661621,-62.947021484375,Left
2818.271728515625,68435,1,1703.0,1756.0,1769.0,1836.0,1708.0,1753.0,1763.0,1739.0,94.33051300048828,-20.88704490661621,-62.947021484375,Left
2820.271728515625,68435,1,1725.0,1755.0,1768.0,1898.0,1677.0,1753.0,1764.0,1735.0,94.33051300048828,-20.88704490661621,-62.947021484375,Left
2819.366943359375,68436,1,1755.0,1751.0,1775.0,1834.0,1757.0,1745.0,1763.0,1749.0,94.33051300048828,-20.88704490661621,-62.947021484375,Left
2821.366943359375,68436,1,1804.0,1751.0,1781.0,1736.0,1863.0,1755.0,1754.0,1755.0,94.33051300048828,-20.88704490661621,-62.947021484375,Left
2823.366943359375,68436,1,1812.0,1759.0,1775.0,1735.0,1879.0,1753.0,1763.0,1761.0,94.33051300048828,-20.88704490661621,-62.947021484375,Left
2825.366943359375,68436,1,1815.0,1755.0,1752.0,1673.0,1733.0,1752.0,1765.0,1755.0,94.33051300048828,-20.88704490661621,-62.947021484375,Left
2827.366943359375,68436,1,1799.0,1757.0,1747.0,1681.0,1739.0,1753.0,1766.0,1756.0,94.33051300048828,-20.88704490661621,-62.947021484375,Left
2826.583984375,68437,1,1754.0,1752.0,1741.0,1805.0,1724.0,1745.0,1765.0,1751.0,94.33051300048828,-20.88704490661621,-62.947021484375,Left
2828.583984375,68437,1,1717.0,1750.0,1743.0,1831.0,1715.0,1751.0,1766.0,1763.0,94.33051300048828,-20.88704490661621,-62.947021484375,Left
2830.583984375,68437,1,1703.0,1757.0,1755.0,1817.0,1738.0,1751.0,1763.0,1755.0,94.33051300048828,-20.88704490661621,-62.947021484375,Left
2832.583984375,68437,1,1704.0,1751.0,1784.0,1851.0,1768.0,1751.0,1755.0,1753.0,94.33051300048828,-20.88704490661621,-62.947021484375,Left
2834.583984375,68437,1,1719.0,1748.0,1763.0,1805.0,1785.0,1751.0,1765.0,1727.0,94.33051300048828,-20.88704490661621,-62.947021484375,Left
2836.843017578125,68438,1,1800.0,1763.0,1771.0,1711.0,1675.0,1752.0,1761.0,1751.0,94.33051300048828,-20.88704490661621,-62.947021484375,Left
2838.843017578125,68438,1,1803.0,1757.0,1775.0,1631.0,1689.0,1754.0,1761.0,1755.0,94.33051300048828,-20.88704490661621,-62.947021484375,Left
2840.843017578125,68438,1,1823.0,1758.0,1765.0,1671.0,1743.0,1751.0,1764.0,1739.0,94.33051300048828,-20.88704490661621,-62.947021484375,Left
2842.843017578125,68438,1,1819.0,1757.0,1757.0,1791.0,1755.0,1745.0,1765.0,1750.0,94.33051300048828,-20.88704490661621,-62.947021484375,Left
2844.843017578125,68438,1,1801.0,1749.0,1749.0,1845.0,1755.0,1752.0,1764.0,1751.0,94.33051300048828,-20.88704490661621,-62.947021484375,Left
2847.905029296875,68439,1,1755.0,1759.0,1717.0,1779.0,1757.0,1747.0,1766.0,1759.0,94.33051300048828,-20.88704490661621,-62.947021484375,Left
2849.905029296875,68439,1,1723.0,1757.0,1654.0,1757.0,1762.0,1743.0,1765.0,1749.0,94.33051300048828,-20.88704490661621,-62.947021484375,Left
2851.905029296875,68439,1,1701.0,1757.0,1788.0,1799.0,1757.0,1753.0,1765.0,1763.0,94.33051300048828,-20.88704490661621,-62.947021484375,Left
2853.905029296875,68439,1,1703.0,1759.0,1799.0,1900.0,1741.0,1742.0,1765.0,1765.0,94.81497192382812,-21.189970016479492,-63.65861129760742,Left
2855.905029296875,68439,1,1724.0,1757.0,1785.0,1747.0,1779.0,1754.0,1755.0,1769.0,94.81497192382812,-21.189970016479492,-63.65861129760742,Left
2857.2900390625,68440,1,1772.0,1757.0,1805.0,1823.0,1771.0,1752.0,1765.0,1738.0,94.81497192382812,-21.189970016479492,-63.65861129760742,Left
2859.2900390625,68440,1,1807.0,1757.0,1763.0,1736.0,1779.0,1753.0,1763.0,1711.0,94.81497192382812,-21.189970016479492,-63.65861129760742,Left
2861.2900390625,68440,1,1823.0,1757.0,1749.0,1767.0,1751.0,1753.0,1765.0,1705.0,94.81497192382812,-21.189970016479492,-63.65861129760742,Left
2863.2900390625,68440,1,1819.0,1757.0,1688.0,1705.0,1605.0,1752.0,1765.0,1720.0,94.81497192382812,-21.189970016479492,-63.65861129760742,Left
2865.2900390625,68440,1,1802.0,1757.0,1763.0,1556.0,1809.0,1753.0,1759.0,1775.0,94.81497192382812,-21.189970016479492,-63.65861129760742,Left
2867.02587890625,68441,1,1755.0,1757.0,1736.0,1660.0,1753.0,1746.0,1763.0,1742.0,94.81497192382812,-21.189970016479492,-63.65861129760742,Left
2869.02587890625,68441,1,1726.0,1757.0,1741.0,1672.0,1715.0,1755.0,1767.0,1745.0,94.81497192382812,-21.189970016479492,-63.65861129760742,Left
2871.02587890625,68441,1,1703.0,1757.0,1765.0,1741.0,1765.0,1750.0,1755.0,1763.0,94.81497192382812,-21.189970016479492,-63.65861129760742,Left
2873.02587890625,68441,1,1707.0,1755.0,1771.0,1819.0,1774.0,1753.0,1765.0,1756.0,94.81497192382812,-21.189970016479492,-63.65861129760742,Left
2875.02587890625,68441,1,1717.0,1759.0,1773.0,1799.0,1721.0,1755.0,1763.0,1743.0,94.81497192382812,-21.189970016479492,-63.65861129760742,Left
2876.531982421875,68442,1,1771.0,1759.0,1782.0,1843.0,1763.0,1753.0,1763.0,1742.0,94.81497192382812,-21.189970016479492,-63.65861129760742,Left
2878.531982421875,68442,1,1803.0,1756.0,1783.0,1812.0,1757.0,1751.0,1765.0,1751.0,94.81497192382812,-21.189970016479492,-63.65861129760742,Left
2880.531982421875,68442,1,1822.0,1757.0,1767.0,1769.0,1669.0,1751.0,1765.0,1739.0,94.81497192382812,-21.189970016479492,-63.65861129760742,Left
2882.531982421875,68442,1,1817.0,1756.0,1741.0,1779.0,1855.0,1753.0,1765.0,1739.0,94.81497192382812,-21.189970016479492,-63.65861129760742,Left
2884.531982421875,68442,1,1788.0,1763.0,1735.0,1721.0,1678.0,1751.0,1761.0,1764.0,94.81497192382812,-21.189970016479492,-63.65861129760742,Left
2887.140869140625,68443,1,1750.0,1762.0,1753.0,1764.0,1788.0,1752.0,1763.0,1754.0,94.81497192382812,-21.189970016479492,-63.65861129760742,Left
2889.140869140625,68443,1,1727.0,1759.0,1740.0,1702.0,1686.0,1753.0,1765.0,1740.0,94.81497192382812,-21.189970016479492,-63.65861129760742,Left
2891.140869140625,68443,1,1696.0,1762.0,1749.0,1719.0,1715.0,1755.0,1766.0,1749.0,94.81497192382812,-21.189970016479492,-63.65861129760742,Left
2893.140869140625,68443,1,1703.0,1758.0,1756.0,1786.0,1671.0,1747.0,1764.0,1755.0,94.81497192382812,-21.189970016479492,-63.65861129760742,Left
2895.140869140625,68443,1,1720.0,1753.0,1763.0,1867.0,1703.0,1752.0,1763.0,1727.0,94.81497192382812,-21.189970016479492,-63.65861129760742,Left
2896.748046875,68444,1,1771.0,1757.0,1759.0,1705.0,1837.0,1751.0,1763.0,1738.0,94.81497192382812,-21.189970016479492,-63.65861129760742,Left
2898.748046875,68444,1,1805.0,1757.0,1766.0,1753.0,1851.0,1751.0,1763.0,1741.0,94.81497192382812,-21.189970016479492,-63.65861129760742,Left
2900.748046875,68444,1,1821.0,1759.0,1755.0,1625.0,1693.0,1743.0,1764.0,1751.0,94.81497192382812,-21.189970016479492,-63.65861129760742,Left
2902.748046875,68444,1,1818.0,1755.0,1765.0,1628.0,1735.0,1755.0,1763.0,1755.0,94.81497192382812,-21.189970016479492,-63.65861129760742,Left
2904.748046875,68444,1,1799.0,1755.0,1746.0,1711.0,1797.0,1753.0,1765.0,1751.0,94.81497192382812,-21.189970016479492,-63.65861129760742,Left
2909.300048828125,68445,1,1747.0,1767.0,1742.0,1789.0,1669.0,1754.0,1762.0,1755.0,94.81497192382812,-21.189970016479492,-63.65861129760742,Left
2911.300048828125,68445,1,1727.0,1759.0,1753.0,1871.0,1683.0,1751.0,1767.0,1755.0,94.81497192382812,-21.189970016479492,-63.65861129760742,Left
2913.300048828125,68445,1,1703.0,1758.0,1759.0,1855.0,1843.0,1743.0,1755.0,1751.0,94.81497192382812,-21.189970016479492,-63.65861129760742,Left
2915.300048828125,68445,1,1703.0,1757.0,1787.0,1845.0,1764.0,1754.0,1753.0,1759.0,94.81497192382812,-21.189970016479492,-63.65861129760742,Left
2917.300048828125,68445,1,1721.0,1759.0,1763.0,1854.0,1740.0,1751.0,1763.0,1751.0,94.81497192382812,-21.189970016479492,-63.65861129760742,Left
2916.29296875,68446,1,1771.0,1751.0,1789.0,1847.0,1685.0,1743.0,1765.0,1763.0,94.81497192382812,-21.189970016479492,-63.65861129760742,Left
2918.29296875,68446,1,1791.0,1757.0,1781.0,1803.0,1767.0,1752.0,1759.0,1759.0,94.9000244140625,-21.23963165283203,-64.21844482421875,Left
2920.29296875,68446,1,1819.0,1759.0,1785.0,1779.0,1817.0,1752.0,1764.0,1764.0,94.9000244140625,-21.23963165283203,-64.21844482421875,Left
2922.29296875,68446,1,1820.0,1757.0,1755.0,1767.0,1745.0,1752.0,1765.0,1724.0,94.9000244140625,-21.23963165283203,-64.21844482421875,Left
2924.29296875,68446,1,1801.0,1751.0,1712.0,1707.0,1725.0,1752.0,1765.0,1689.0,94.9000244140625,-21.23963165283203,-64.21844482421875,Left
2926.639892578125,68447,1,1764.0,1758.0,1683.0,1619.0,1771.0,1743.0,1761.0,1721.0,94.9000244140625,-21.23963165283203,-64.21844482421875,Left
2928.639892578125,68447,1,1726.0,1759.0,1725.0,1592.0,1800.0,1754.0,1765.0,1741.0,94.9000244140625,-21.23963165283203,-64.21844482421875,Left
2930.639892578125,68447,1,1707.0,1758.0,1752.0,1577.0,1703.0,1742.0,1765.0,1775.0,94.9000244140625,-21.23963165283203,-64.21844482421875,Left
2932.639892578125,68447,1,1691.0,1757.0,1787.0,1597.0,1749.0,1752.0,1763.0,1763.0,94.9000244140625,-21.23963165283203,-64.21844482421875,Left
2934.639892578125,68447,1,1721.0,1757.0,1789.0,1657.0,1766.0,1751.0,1764.0,1752.0,94.9000244140625,-21.23963165283203,-64.21844482421875,Left
2936.39697265625,68448,1,1770.0,1741.0,1781.0,1709.0,1625.0,1753.0,1765.0,1747.0,94.9000244140625,-21.23963165283203,-64.21844482421875,Left
2938.39697265625,68448,1,1791.0,1763.0,1769.0,1721.0,1767.0,1747.0,1765.0,1753.0,94.9000244140625,-21.23963165283203,-64.21844482421875,Left
2940.39697265625,68448,1,1811.0,1757.0,1765.0,1726.0,1959.0,1752.0,1759.0,1774.0,94.9000244140625,-21.23963165283203,-64.21844482421875,Left
2942.39697265625,68448,1,1819.0,1751.0,1765.0,1769.0,1645.0,1751.0,1763.0,1773.0,94.9000244140625,-21.23963165283203,-64.21844482421875,Left
2944.39697265625,68448,1,1803.0,1759.0,1751.0,1827.0,1861.0,1747.0,1753.0,1766.0,94.9000244140625,-21.23963165283203,-64.21844482421875,Left
2952.049072265625,68449,1,1753.0,1756.0,1753.0,1839.0,1661.0,1743.0,1764.0,1755.0,94.9000244140625,-21.23963165283203,-64.21844482421875,Left
2954.049072265625,68449,1,1733.0,1755.0,1741.0,1875.0,1287.0,1753.0,1763.0,1720.0,94.9000244140625,-21.23963165283203,-64.21844482421875,Left
2956.049072265625,68449,1,1703.0,1748.0,1711.0,1901.0,1703.0,1751.0,1752.0,1715.0,94.9000244140625,-21.23963165283203,-64.21844482421875,Left
2958.049072265625,68449,1,1703.0,1759.0,1758.0,1813.0,1685.0,1755.0,1763.0,1746.0,94.9000244140625,-21.23963165283203,-64.21844482421875,Left
2960.049072265625,68449,1,1719.0,1756.0,1756.0,1813.0,2525.0,1753.0,1766.0,1739.0,94.9000244140625,-21.23963165283203,-64.21844482421875,Left
2956.55078125,68450,1,1766.0,1755.0,1797.0,1780.0,1512.0,1753.0,1764.0,1755.0,94.9000244140625,-21.23963165283203,-64.21844482421875,Left
2958.55078125,68450,1,1801.0,1756.0,1775.0,1711.0,1403.0,1753.0,1763.0,1762.0,94.9000244140625,-21.23963165283203,-64.21844482421875,Left
2960.55078125,68450,1,1821.0,1755.0,1771.0,1743.0,1359.0,1753.0,1762.0,1763.0,94.9000244140625,-21.23963165283203,-64.21844482421875,Left
2962.55078125,68450,1,1813.0,1749.0,1769.0,1755.0,1753.0,1751.0,1765.0,1755.0,94.9000244140625,-21.23963165283203,-64.21844482421875,Left
2964.55078125,68450,1,1805.0,1763.0,1755.0,1815.0,2999.0,1746.0,1765.0,1755.0,94.9000244140625,-21.23963165283203,-64.21844482421875,Left
2967.56884765625,68451,1,1758.0,1753.0,1753.0,1891.0,1811.0,1753.0,1763.0,1739.0,94.9000244140625,-21.23963165283203,-64.21844482421875,Left
2969.56884765625,68451,1,1733.0,1757.0,1747.0,1919.0,1788.0,1751.0,1765.0,1765.0,94.9000244140625,-21.23963165283203,-64.21844482421875,Left
2971.56884765625,68451,1,1698.0,1757.0,1735.0,1973.0,999.0,1752.0,1763.0,1789.0,94.9000244140625,-21.23963165283203,-64.21844482421875,Left
2973.56884765625,68451,1,1699.0,1757.0,1791.0,1869.0,1702.0,1753.0,1762.0,1788.0,94.9000244140625,-21.23963165283203,-64.21844482421875,Left
2975.56884765625,68451,1,1719.0,1759.0,1763.0,1901.0,2392.0,1753.0,1763.0,1755.0,94.9000244140625,-21.23963165283203,-64.21844482421875,Left
2976.428955078125,68452,1,1765.0,1757.0,1769.0,1773.0,1327.0,1752.0,1761.0,1763.0,94.9000244140625,-21.23963165283203,-64.21844482421875,Left
2978.428955078125,68452,1,1801.0,1757.0,1781.0,1625.0,1363.0,1743.0,1756.0,1717.0,94.9000244140625,-21.23963165283203,-64.21844482421875,Left
2980.428955078125,68452,1,1815.0,1757.0,1709.0,1653.0,2495.0,1746.0,1763.0,1683.0,94.9000244140625,-21.23963165283203,-64.21844482421875,Left
2982.428955078125,68452,1,1819.0,1757.0,1701.0,1545.0,1739.0,1755.0,1755.0,1716.0,95.04026794433594,-21.246498107910156,-64.52162170410156,Left
2984.428955078125,68452,1,1805.0,1757.0,1749.0,1695.0,715.0,1751.0,1763.0,1692.0,95.04026794433594,-21.246498107910156,-64.52162170410156,Left
2995.85888671875,68453,1,1761.0,1759.0,1724.0,1720.0,2517.0,1752.0,1754.0,1806.0,95.04026794433594,-21.246498107910156,-64.52162170410156,Left
2997.85888671875,68453,1,1724.0,1757.0,1769.0,1736.0,2403.0,1754.0,1762.0,1789.0,95.04026794433594,-21.246498107910156,-64.52162170410156,Left
2999.85888671875,68453,1,1707.0,1758.0,1768.0,1807.0,1935.0,1742.0,1755.0,1763.0,95.04026794433594,-21.246498107910156,-64.52162170410156,Left
3001.85888671875,68453,1,1695.0,1755.0,1779.0,1780.0,1619.0,1753.0,1754.0,1789.0,95.04026794433594,-21.246498107910156,-64.52162170410156,Left
3003.85888671875,68453,1,1717.0,1759.0,1763.0,1751.0,1581.0,1751.0,1766.0,1771.0,95.04026794433594,-21.246498107910156,-64.52162170410156,Left
2996.947021484375,68454,1,1775.0,1749.0,1801.0,1765.0,1559.0,1751.0,1763.0,1775.0,95.04026794433594,-21.246498107910156,-64.52162170410156,Left
2998.947021484375,68454,1,1800.0,1757.0,1783.0,1733.0,1815.0,1751.0,1759.0,1758.0,95.04026794433594,-21.246498107910156,-64.52162170410156,Left
3000.947021484375,68454,1,1817.0,1757.0,1747.0,1679.0,1547.0,1752.0,1753.0,1678.0,95.04026794433594,-21.246498107910156,-64.52162170410156,Left
3002.947021484375,68454,1,1817.0,1758.0,1720.0,1638.0,1739.0,1753.0,1765.0,1687.0,95.04026794433594,-21.246498107910156,-64.52162170410156,Left
3004.947021484375,68454,1,1797.0,1749.0,1683.0,1809.0,1289.0,1753.0,1761.0,1663.0,95.04026794433594,-21.246498107910156,-64.52162170410156,Left
3006.35693359375,68455,1,1753.0,1757.0,1753.0,1850.0,1379.0,1755.0,1757.0,1764.0,95.04026794433594,-21.246498107910156,-64.52162170410156,Left
3008.35693359375,68455,1,1727.0,1757.0,1775.0,1747.0,2121.0,1752.0,1765.0,1791.0,95.04026794433594,-21.246498107910156,-64.52162170410156,Left
3010.35693359375,68455,1,1705.0,1756.0,1750.0,1813.0,2099.0,1746.0,1763.0,1741.0,95.04026794433594,-21.246498107910156,-64.52162170410156,Left
3012.35693359375,68455,1,1700.0,1755.0,1749.0,1802.0,1805.0,1749.0,1763.0,1753.0,95.04026794433594,-21.246498107910156,-64.52162170410156,Left
3014.35693359375,68455,1,1715.0,1757.0,1819.0,1853.0,1437.0,1751.0,1761.0,1767.0,95.04026794433594,-21.246498107910156,-64.52162170410156,Left
3016.545166015625,68456,1,1749.0,1759.0,1800.0,1721.0,2277.0,1750.0,1752.0,1765.0,95.04026794433594,-21.246498107910156,-64.52162170410156,Left
3018.545166015625,68456,1,1797.0,1757.0,1775.0,1800.0,1480.0,1745.0,1763.0,1781.0,95.04026794433594,-21.246498107910156,-64.52162170410156,Left
3020.545166015625,68456,1,1816.0,1759.0,1725.0,1786.0,1573.0,1755.0,1765.0,1755.0,95.04026794433594,-21.246498107910156,-64.52162170410156,Left
3022.545166015625,68456,1,1816.0,1756.0,1785.0,1832.0,2035.0,1753.0,1765.0,1762.0,95.04026794433594,-21.246498107910156,-64.52162170410156,Left
3024.545166015625,68456,1,1798.0,1755.0,1720.0,1811.0,1560.0,1753.0,1766.0,1743.0,95.04026794433594,-21.246498107910156,-64.52162170410156,Left
3026.535888671875,68457,1,1763.0,1756.0,1739.0,1883.0,1206.0,1742.0,1757.0,1757.0,95.04026794433594,-21.246498107910156,-64.52162170410156,Left
3028.535888671875,68457,1,1733.0,1757.0,1701.0,1842.0,2355.0,1751.0,1763.0,1741.0,95.04026794433594,-21.246498107910156,-64.52162170410156,Left
3030.535888671875,68457,1,1702.0,1756.0,1734.0,1812.0,1624.0,1751.0,1756.0,1747.0,95.04026794433594,-21.246498107910156,-64.52162170410156,Left
3032.535888671875,68457,1,1701.0,1759.0,1776.0,1800.0,1471.0,1743.0,1754.0,1747.0,95.04026794433594,-21.246498107910156,-64.52162170410156,Left
3034.535888671875,68457,1,1717.0,1755.0,1791.0,1717.0,2005.0,1751.0,1765.0,1767.0,95.04026794433594,-21.246498107910156,-64.52162170410156,Left
3037.73193359375,68458,1,1759.0,1753.0,1790.0,1623.0,1637.0,1753.0,1764.0,1743.0,95.04026794433594,-21.246498107910156,-64.52162170410156,Left
3039.73193359375,68458,1,1799.0,1755.0,1787.0,1593.0,1701.0,1755.0,1763.0,1757.0,95.04026794433594,-21.246498107910156,-64.52162170410156,Left
3041.73193359375,68458,1,1815.0,1757.0,1779.0,1688.0,1705.0,1752.0,1764.0,1736.0,95.04026794433594,-21.246498107910156,-64.52162170410156,Left
3043.73193359375,68458,1,1811.0,1759.0,1727.0,1705.0,1597.0,1753.0,1765.0,1735.0,95.04026794433594,-21.246498107910156,-64.52162170410156,Left
3045.73193359375,68458,1,1803.0,1759.0,1754.0,1711.0,1884.0,1752.0,1755.0,1779.0,95.04026794433594,-21.246498107910156,-64.52162170410156,Left
3046.5732421875,68459,1,1767.0,1757.0,1747.0,1757.0,1801.0,1752.0,1764.0,1741.0,95.31275177001953,-21.200489044189453,-64.8487777709961,Left
3048.5732421875,68459,1,1733.0,1756.0,1716.0,1743.0,1689.0,1752.0,1766.0,1757.0,95.31275177001953,-21.200489044189453,-64.8487777709961,Left
3050.5732421875,68459,1,1699.0,1754.0,1755.0,1891.0,1805.0,1752.0,1763.0,1759.0,95.31275177001953,-21.200489044189453,-64.8487777709961,Left
3052.5732421875,68459,1,1700.0,1759.0,1771.0,1877.0,1735.0,1743.0,1765.0,1751.0,95.31275177001953,-21.200489044189453,-64.8487777709961,Left
3054.5732421875,68459,1,1716.0,1757.0,1771.0,1864.0,1509.0,1753.0,1755.0,1751.0,95.31275177001953,-21.200489044189453,-64.8487777709961,Left
3057.267822265625,68460,1,1757.0,1751.0,1771.0,1629.0,1932.0,1743.0,1765.0,1746.0,95.31275177001953,-21.200489044189453,-64.8487777709961,Left
3059.267822265625,68460,1,1799.0,1754.0,1787.0,1643.0,1779.0,1751.0,1764.0,1741.0,95.31275177001953,-21.200489044189453,-64.8487777709961,Left
3061.267822265625,68460,1,1816.0,1757.0,1781.0,1739.0,1721.0,1749.0,1754.0,1751.0,95.31275177001953,-21.200489044189453,-64.8487777709961,Left
3063.267822265625,68460,1,1811.0,1754.0,1751.0,1723.0,1433.0,1754.0,1758.0,1756.0,95.31275177001953,-21.200489044189453,-64.8487777709961,Left
3065.267822265625,68460,1,1801.0,1749.0,1707.0,1741.0,1994.0,1753.0,1755.0,1745.0,95.31275177001953,-21.200489044189453,-64.8487777709961,Left
3067.2138671875,68461,1,1767.0,1749.0,1703.0,1782.0,1769.0,1753.0,1755.0,1787.0,95.31275177001953,-21.200489044189453,-64.8487777709961,Left
3069.2138671875,68461,1,1736.0,1749.0,1759.0,1757.0,1763.0,1752.0,1767.0,1769.0,95.31275177001953,-21.200489044189453,-64.8487777709961,Left
3071.2138671875,68461,1,1707.0,1751.0,1779.0,1863.0,1773.0,1749.0,1765.0,1749.0,95.31275177001953,-21.200489044189453,-64.8487777709961,Left
3073.2138671875,68461,1,1695.0,1757.0,1741.0,1893.0,1695.0,1753.0,1764.0,1703.0,95.31275177001953,-21.200489044189453,-64.8487777709961,Left
3075.2138671875,68461,1,1707.0,1755.0,1741.0,1774.0,1789.0,1755.0,1759.0,1711.0,95.31275177001953,-21.200489044189453,-64.8487777709961,Left
3081.48193359375,68462,1,1755.0,1757.0,1783.0,1752.0,1789.0,1743.0,1757.0,1759.0,95.31275177001953,-21.200489044189453,-64.8487777709961,Left
3083.48193359375,68462,1,1797.0,1753.0,1785.0,1763.0,1682.0,1747.0,1763.0,1766.0,95.31275177001953,-21.200489044189453,-64.8487777709961,Left
3085.48193359375,68462,1,1817.0,1757.0,1769.0,1819.0,1947.0,1751.0,1763.0,1765.0,95.31275177001953,-21.200489044189453,-64.8487777709961,Left
3087.48193359375,68462,1,1819.0,1753.0,1798.0,1780.0,1755.0,1753.0,1763.0,1765.0,95.31275177001953,-21.200489044189453,-64.8487777709961,Left
3089.48193359375,68462,1,1803.0,1759.0,1753.0,1845.0,1741.0,1751.0,1759.0,1749.0,95.31275177001953,-21.200489044189453,-64.8487777709961,Left
3087.6591796875,68463,1,1770.0,1751.0,1733.0,1971.0,1633.0,1754.0,1771.0,1734.0,95.31275177001953,-21.200489044189453,-64.8487777709961,Left
3089.6591796875,68463,1,1737.0,1756.0,1743.0,1971.0,1277.0,1751.0,1765.0,1754.0,95.31275177001953,-21.200489044189453,-64.8487777709961,Left
3091.6591796875,68463,1,1707.0,1755.0,1739.0,1951.0,2415.0,1747.0,1753.0,1765.0,95.31275177001953,-21.200489044189453,-64.8487777709961,Left
3093.6591796875,68463,1,1695.0,1757.0,1775.0,1903.0,1885.0,1752.0,1765.0,1763.0,95.31275177001953,-21.200489044189453,-64.8487777709961,Left
3095.6591796875,68463,1,1716.0,1761.0,1775.0,1791.0,1726.0,1753.0,1764.0,1750.0,95.31275177001953,-21.200489044189453,-64.8487777709961,Left
3097.720947265625,68464,1,1749.0,1756.0,1785.0,1645.0,1675.0,1752.0,1751.0,1767.0,95.31275177001953,-21.200489044189453,-64.8487777709961,Left
3099.720947265625,68464,1,1797.0,1757.0,1784.0,1653.0,1545.0,1752.0,1762.0,1767.0,95.31275177001953,-21.200489044189453,-64.8487777709961,Left
3101.720947265625,68464,1,1815.0,1750.0,1753.0,1661.0,2237.0,1753.0,1756.0,1723.0,95.31275177001953,-21.200489044189453,-64.8487777709961,Left
3103.720947265625,68464,1,1819.0,1757.0,1721.0,1647.0,1695.0,1745.0,1753.0,1719.0,95.31275177001953,-21.200489044189453,-64.8487777709961,Left
3105.720947265625,68464,1,1798.0,1755.0,1752.0,1699.0,1741.0,1753.0,1753.0,1757.0,95.31275177001953,-21.200489044189453,-64.8487777709961,Left
3113.384033203125,68465,1,1771.0,1757.0,1750.0,1803.0,1764.0,1753.0,1764.0,1757.0,95.31275177001953,-21.200489044189453,-64.8487777709961,Left
3115.384033203125,68465,1,1737.0,1752.0,1749.0,1779.0,1587.0,1753.0,1763.0,1759.0,95.31275177001953,-21.200489044189453,-64.8487777709961,Left
3117.384033203125,68465,1,1707.0,1761.0,1753.0,1781.0,1832.0,1751.0,1763.0,1759.0,95.31275177001953,-21.200489044189453,-64.8487777709961,Left
3119.384033203125,68465,1,1699.0,1751.0,1763.0,1735.0,1388.0,1751.0,1753.0,1749.0,95.76355743408203,-21.06277847290039,-64.95552062988281,Left
3121.384033203125,68465,1,1708.0,1759.0,1801.0,1771.0,1231.0,1755.0,1759.0,1757.0,95.76355743408203,-21.06277847290039,-64.95552062988281,Left
3116.97314453125,68466,1,1753.0,1756.0,1799.0,1673.0,3039.0,1753.0,1759.0,1740.0,95.76355743408203,-21.06277847290039,-64.95552062988281,Left
3118.97314453125,68466,1,1789.0,1757.0,1749.0,1594.0,1640.0,1751.0,1754.0,1748.0,95.76355743408203,-21.06277847290039,-64.95552062988281,Left
3120.97314453125,68466,1,1817.0,1755.0,1767.0,1567.0,1675.0,1754.0,1764.0,1763.0,95.76355743408203,-21.06277847290039,-64.95552062988281,Left
3122.97314453125,68466,1,1823.0,1757.0,1754.0,1609.0,1407.0,1753.0,1762.0,1757.0,95.76355743408203,-21.06277847290039,-64.95552062988281,Left
3124.97314453125,68466,1,1805.0,1756.0,1736.0,1687.0,1787.0,1753.0,1767.0,1748.0,95.76355743408203,-21.06277847290039,-64.95552062988281,Left
3127.30908203125,68467,1,1771.0,1757.0,1707.0,1771.0,1655.0,1753.0,1767.0,1715.0,95.76355743408203,-21.06277847290039,-64.95552062988281,Left
3129.30908203125,68467,1,1737.0,1756.0,1703.0,1779.0,1987.0,1751.0,1763.0,1727.0,95.76355743408203,-21.06277847290039,-64.95552062988281,Left
3131.30908203125,68467,1,1711.0,1757.0,1737.0,1815.0,1687.0,1755.0,1765.0,1739.0,95.76355743408203,-21.06277847290039,-64.95552062988281,Left
3133.30908203125,68467,1,1699.0,1759.0,1837.0,1776.0,1726.0,1753.0,1767.0,1759.0,95.76355743408203,-21.06277847290039,-64.95552062988281,Left
3135.30908203125,68467,1,1715.0,1756.0,1783.0,1821.0,1721.0,1751.0,1764.0,1757.0,95.76355743408203,-21.06277847290039,-64.95552062988281,Left
3137.06591796875,68468,1,1754.0,1756.0,1763.0,1735.0,1653.0,1743.0,1763.0,1763.0,95.76355743408203,-21.06277847290039,-64.95552062988281,Left
3139.06591796875,68468,1,1789.0,1755.0,1711.0,1711.0,1847.0,1747.0,1757.0,1750.0,95.76355743408203,-21.06277847290039,-64.95552062988281,Left
3141.06591796875,68468,1,1815.0,1755.0,1769.0,1709.0,1837.0,1755.0,1759.0,1771.0,95.76355743408203,-21.06277847290039,-64.95552062988281,Left
3143.06591796875,68468,1,1820.0,1755.0,1765.0,1723.0,1692.0,1751.0,1755.0,1727.0,95.76355743408203,-21.06277847290039,-64.95552062988281,Left
3145.06591796875,68468,1,1805.0,1749.0,1755.0,1833.0,1742.0,1751.0,1763.0,1736.0,95.76355743408203,-21.06277847290039,-64.95552062988281,Left
3146.85302734375,68469,1,1769.0,1755.0,1749.0,1935.0,1644.0,1739.0,1763.0,1752.0,95.76355743408203,-21.06277847290039,-64.95552062988281,Left
3148.85302734375,68469,1,1739.0,1749.0,1757.0,1832.0,1737.0,1740.0,1755.0,1769.0,95.76355743408203,-21.06277847290039,-64.95552062988281,Left
3150.85302734375,68469,1,1712.0,1757.0,1763.0,1811.0,1739.0,1752.0,1763.0,1747.0,95.76355743408203,-21.06277847290039,-64.95552062988281,Left
3152.85302734375,68469,1,1703.0,1757.0,1763.0,1742.0,1917.0,1754.0,1763.0,1719.0,95.76355743408203,-21.06277847290039,-64.95552062988281,Left
3154.85302734375,68469,1,1707.0,1755.0,1752.0,1655.0,1509.0,1753.0,1765.0,1755.0,95.76355743408203,-21.06277847290039,-64.95552062988281,Left
3157.296875,68470,1,1750.0,1747.0,1783.0,1691.0,1801.0,1741.0,1765.0,1737.0,95.76355743408203,-21.06277847290039,-64.95552062988281,Left
3159.296875,68470,1,1789.0,1759.0,1769.0,1687.0,1817.0,1755.0,1765.0,1749.0,95.76355743408203,-21.06277847290039,-64.95552062988281,Left
3161.296875,68470,1,1811.0,1758.0,1751.0,1734.0,1690.0,1755.0,1764.0,1739.0,95.76355743408203,-21.06277847290039,-64.95552062988281,Left
3163.296875,68470,1,1821.0,1757.0,1751.0,1687.0,1812.0,1747.0,1765.0,1757.0,95.76355743408203,-21.06277847290039,-64.95552062988281,Left
3165.296875,68470,1,1807.0,1758.0,1753.0,1663.0,1608.0,1752.0,1759.0,1769.0,95.76355743408203,-21.06277847290039,-64.95552062988281,Left
3168.9228515625,68471,1,1771.0,1755.0,1722.0,1691.0,1575.0,1747.0,1759.0,1747.0,95.76355743408203,-21.06277847290039,-64.95552062988281,Left
3170.9228515625,68471,1,1741.0,1757.0,1687.0,1699.0,1630.0,1751.0,1755.0,1737.0,95.76355743408203,-21.06277847290039,-64.95552062988281,Left
3172.9228515625,68471,1,1709.0,1755.0,1747.0,1788.0,2173.0,1752.0,1765.0,1767.0,95.76355743408203,-21.06277847290039,-64.95552062988281,Left
3174.9228515625,68471,1,1695.0,1757.0,1749.0,1822.0,1627.0,1753.0,1765.0,1741.0,95.76355743408203,-21.06277847290039,-64.95552062988281,Left
3176.9228515625,68471,1,1707.0,1758.0,1772.0,1775.0,1848.0,1751.0,1767.0,1757.0,95.76355743408203,-21.06277847290039,-64.95552062988281,Left
3178.530029296875,68472,1,1752.0,1757.0,1790.0,1736.0,1573.0,1743.0,1759.0,1751.0,95.5134048461914,-21.115692138671875,-64.84749603271484,Left
3180.530029296875,68472,1,1789.0,1754.0,1784.0,1693.0,1617.0,1749.0,1763.0,1752.0,95.5134048461914,-21.115692138671875,-64.84749603271484,Left
3182.530029296875,68472,1,1815.0,1757.0,1773.0,1720.0,1611.0,1753.0,1762.0,1752.0,95.5134048461914,-21.115692138671875,-64.84749603271484,Left
3184.530029296875,68472,1,1819.0,1745.0,1751.0,1771.0,2376.0,1749.0,1765.0,1761.0,95.5134048461914,-21.115692138671875,-64.84749603271484,Left
3186.530029296875,68472,1,1791.0,1757.0,1764.0,1751.0,1672.0,1751.0,1767.0,1756.0,95.5134048461914,-21.115692138671875,-64.84749603271484,Left
3188.512939453125,68473,1,1772.0,1749.0,1739.0,1769.0,1647.0,1741.0,1763.0,1751.0,95.5134048461914,-21.115692138671875,-64.84749603271484,Left
3190.512939453125,68473,1,1734.0,1755.0,1753.0,1816.0,1875.0,1753.0,1763.0,1764.0,95.5134048461914,-21.115692138671875,-64.84749603271484,Left
3192.512939453125,68473,1,1711.0,1750.0,1750.0,1828.0,1811.0,1752.0,1765.0,1751.0,95.5134048461914,-21.115692138671875,-64.84749603271484,Left
3194.512939453125,68473,1,1692.0,1751.0,1749.0,1829.0,1725.0,1751.0,1764.0,1758.0,95.5134048461914,-21.115692138671875,-64.84749603271484,Left
3196.512939453125,68473,1,1707.0,1759.0,1765.0,1854.0,1607.0,1753.0,1767.0,1749.0,95.5134048461914,-21.115692138671875,-64.84749603271484,Left
3200.52001953125,68474,1,1751.0,1748.0,1767.0,1802.0,1833.0,1751.0,1752.0,1754.0,95.5134048461914,-21.115692138671875,-64.84749603271484,Left
3202.52001953125,68474,1,1791.0,1755.0,1783.0,1711.0,1768.0,1747.0,1755.0,1748.0,95.5134048461914,-21.115692138671875,-64.84749603271484,Left
3204.52001953125,68474,1,1815.0,1757.0,1748.0,1588.0,1802.0,1751.0,1763.0,1757.0,95.5134048461914,-21.115692138671875,-64.84749603271484,Left
3206.52001953125,68474,1,1821.0,1757.0,1768.0,1595.0,1765.0,1753.0,1753.0,1751.0,95.5134048461914,-21.115692138671875,-64.84749603271484,Left
3208.52001953125,68474,1,1805.0,1755.0,1725.0,1587.0,1724.0,1751.0,1765.0,1752.0,95.5134048461914,-21.115692138671875,-64.84749603271484,Left
3210.925048828125,68475,1,1767.0,1759.0,1720.0,1677.0,1639.0,1753.0,1764.0,1749.0,95.5134048461914,-21.115692138671875,-64.84749603271484,Left
3212.925048828125,68475,1,1742.0,1759.0,1735.0,1755.0,1837.0,1751.0,1755.0,1724.0,95.5134048461914,-21.115692138671875,-64.84749603271484,Left
3214.925048828125,68475,1,1711.0,1758.0,1734.0,1827.0,1722.0,1751.0,1764.0,1739.0,95.5134048461914,-21.115692138671875,-64.84749603271484,Left
3216.925048828125,68475,1,1699.0,1757.0,1741.0,1767.0,1780.0,1755.0,1763.0,1755.0,95.5134048461914,-21.115692138671875,-64.84749603271484,Left
3218.925048828125,68475,1,1707.0,1759.0,1773.0,1752.0,1699.0,1752.0,1765.0,1755.0,95.5134048461914,-21.115692138671875,-64.84749603271484,Left
3217.73779296875,68476,1,1749.0,1755.0,1781.0,1754.0,1754.0,1754.0,1759.0,1766.0,95.5134048461914,-21.115692138671875,-64.84749603271484,Left
3219.73779296875,68476,1,1789.0,1752.0,1802.0,1799.0,1849.0,1751.0,1757.0,1759.0,95.5134048461914,-21.115692138671875,-64.84749603271484,Left
3221.73779296875,68476,1,1803.0,1756.0,1784.0,1786.0,1753.0,1754.0,1752.0,1764.0,95.5134048461914,-21.115692138671875,-64.84749603271484,Left
3223.73779296875,68476,1,1822.0,1757.0,1767.0,1771.0,1764.0,1752.0,1757.0,1758.0,95.5134048461914,-21.115692138671875,-64.84749603271484,Left
3225.73779296875,68476,1,1805.0,1759.0,1776.0,1739.0,1715.0,1751.0,1763.0,1740.0,95.5134048461914,-21.115692138671875,-64.84749603271484,Left
3228.60205078125,68477,1,1772.0,1749.0,1747.0,1785.0,1789.0,1745.0,1767.0,1719.0,95.5134048461914,-21.115692138671875,-64.84749603271484,Left
3230.60205078125,68477,1,1741.0,1756.0,1725.0,1738.0,1693.0,1752.0,1766.0,1727.0,95.5134048461914,-21.115692138671875,-64.84749603271484,Left
3232.60205078125,68477,1,1716.0,1757.0,1727.0,1725.0,1767.0,1751.0,1753.0,1735.0,95.5134048461914,-21.115692138671875,-64.84749603271484,Left
3234.60205078125,68477,1,1695.0,1755.0,1741.0,1807.0,1763.0,1749.0,1755.0,1736.0,95.5134048461914,-21.115692138671875,-64.84749603271484,Left
3236.60205078125,68477,1,1705.0,1755.0,1769.0,1811.0,1799.0,1751.0,1763.0,1766.0,95.5134048461914,-21.115692138671875,-64.84749603271484,Left
3237.243896484375,68478,1,1746.0,1753.0,1798.0,1896.0,1703.0,1749.0,1755.0,1755.0,95.5134048461914,-21.115692138671875,-64.84749603271484,Left
3239.243896484375,68478,1,1785.0,1755.0,1768.0,1930.0,1784.0,1753.0,1765.0,1757.0,95.5134048461914,-21.115692138671875,-64.84749603271484,Left
3241.243896484375,68478,1,1812.0,1756.0,1763.0,1915.0,1734.0,1753.0,1759.0,1767.0,95.5134048461914,-21.115692138671875,-64.84749603271484,Left
3243.243896484375,68478,1,1814.0,1757.0,1767.0,1823.0,1703.0,1752.0,1767.0,1764.0,95.5940933227539,-21.033613204956055,-64.72443389892578,Left
3245.243896484375,68478,1,1806.0,1758.0,1763.0,1805.0,1821.0,1750.0,1754.0,1755.0,95.5940933227539,-21.033613204956055,-64.72443389892578,Left
3251.531982421875,68479,1,1767.0,1757.0,1738.0,1886.0,1301.0,1752.0,1765.0,1739.0,95.5940933227539,-21.033613204956055,-64.72443389892578,Left
3253.531982421875,68479,1,1738.0,1757.0,1741.0,1864.0,2181.0,1752.0,1763.0,1749.0,95.5940933227539,-21.033613204956055,-64.72443389892578,Left
3255.531982421875,68479,1,1719.0,1758.0,1742.0,1837.0,1595.0,1752.0,1755.0,1752.0,95.5940933227539,-21.033613204956055,-64.72443389892578,Left
3257.531982421875,68479,1,1689.0,1755.0,1739.0,1831.0,1759.0,1752.0,1755.0,1745.0,95.5940933227539,-21.033613204956055,-64.72443389892578,Left
3259.531982421875,68479,1,1704.0,1759.0,1746.0,1735.0,1939.0,1755.0,1767.0,1763.0,95.5940933227539,-21.033613204956055,-64.72443389892578,Left
3259.52490234375,68480,1,1747.0,1786.0,1835.0,1726.0,1695.0,1742.0,1764.0,1757.0,95.5940933227539,-21.033613204956055,-64.72443389892578,Left
3261.52490234375,68480,1,1785.0,1756.0,1805.0,1703.0,1647.0,1755.0,1752.0,1725.0,95.5940933227539,-21.033613204956055,-64.72443389892578,Left
3263.52490234375,68480,1,1811.0,1757.0,1776.0,1735.0,1775.0,1754.0,1763.0,1757.0,95.5940933227539,-21.033613204956055,-64.72443389892578,Left
3265.52490234375,68480,1,1822.0,1759.0,1757.0,1716.0,1323.0,1753.0,1765.0,1771.0,95.5940933227539,-21.033613204956055,-64.72443389892578,Left
3267.52490234375,68480,1,1807.0,1762.0,1718.0,1757.0,2245.0,1751.0,1759.0,1726.0,95.5940933227539,-21.033613204956055,-64.72443389892578,Left
3270.420166015625,68481,1,1769.0,1757.0,1716.0,1643.0,2053.0,1753.0,1765.0,1751.0,95.5940933227539,-21.033613204956055,-64.72443389892578,Left
3272.420166015625,68481,1,1743.0,1754.0,1759.0,1655.0,1553.0,1753.0,1756.0,1752.0,95.5940933227539,-21.033613204956055,-64.72443389892578,Left
3274.420166015625,68481,1,1717.0,1757.0,1768.0,1693.0,1809.0,1745.0,1765.0,1755.0,95.5940933227539,-21.033613204956055,-64.72443389892578,Left
3276.420166015625,68481,1,1693.0,1756.0,1772.0,1749.0,1721.0,1753.0,1763.0,1747.0,95.5940933227539,-21.033613204956055,-64.72443389892578,Left
3278.420166015625,68481,1,1709.0,1756.0,1771.0,1821.0,1654.0,1752.0,1763.0,1756.0,95.5940933227539,-21.033613204956055,-64.72443389892578,Left
3276.072998046875,68482,1,1747.0,1757.0,1767.0,1750.0,1567.0,1735.0,1764.0,1749.0,95.5940933227539,-21.033613204956055,-64.72443389892578,Left
3278.072998046875,68482,1,1785.0,1749.0,1755.0,1772.0,1609.0,1748.0,1756.0,1723.0,95.5940933227539,-21.033613204956055,-64.72443389892578,Left
3280.072998046875,68482,1,1811.0,1754.0,1779.0,1769.0,1975.0,1751.0,1764.0,1759.0,95.5940933227539,-21.033613204956055,-64.72443389892578,Left
3282.072998046875,68482,1,1816.0,1756.0,1770.0,1893.0,1753.0,1751.0,1763.0,1753.0,95.5940933227539,-21.033613204956055,-64.72443389892578,Left
3284.072998046875,68482,1,1812.0,1757.0,1749.0,1832.0,1719.0,1747.0,1765.0,1747.0,95.5940933227539,-21.033613204956055,-64.72443389892578,Left
3286.15185546875,68483,1,1774.0,1749.0,1755.0,1807.0,1735.0,1753.0,1765.0,1781.0,95.5940933227539,-21.033613204956055,-64.72443389892578,Left
3288.15185546875,68483,1,1747.0,1751.0,1755.0,1818.0,1727.0,1751.0,1765.0,1773.0,95.5940933227539,-21.033613204956055,-64.72443389892578,Left
3290.15185546875,68483,1,1719.0,1749.0,1772.0,1763.0,1739.0,1753.0,1763.0,1767.0,95.5940933227539,-21.033613204956055,-64.72443389892578,Left
3292.15185546875,68483,1,1695.0,1757.0,1781.0,1785.0,1737.0,1753.0,1755.0,1711.0,95.5940933227539,-21.033613204956055,-64.72443389892578,Left
3294.15185546875,68483,1,1711.0,1758.0,1725.0,1855.0,1715.0,1751.0,1762.0,1705.0,95.5940933227539,-21.033613204956055,-64.72443389892578,Left
3296.97802734375,68484,1,1741.0,1755.0,1747.0,1764.0,1758.0,1753.0,1764.0,1717.0,95.5940933227539,-21.033613204956055,-64.72443389892578,Left
3298.97802734375,68484,1,1784.0,1756.0,1755.0,1607.0,1802.0,1751.0,1763.0,1759.0,95.5940933227539,-21.033613204956055,-64.72443389892578,Left
3300.97802734375,68484,1,1809.0,1757.0,1802.0,1658.0,1788.0,1746.0,1765.0,1750.0,95.5940933227539,-21.033613204956055,-64.72443389892578,Left
3302.97802734375,68484,1,1820.0,1756.0,1747.0,1688.0,1753.0,1743.0,1753.0,1743.0,95.5940933227539,-21.033613204956055,-64.72443389892578,Left
3304.97802734375,68484,1,1804.0,1755.0,1752.0,1676.0,1685.0,1753.0,1754.0,1799.0,95.5940933227539,-21.033613204956055,-64.72443389892578,Left
3309.29296875,68485,1,1775.0,1759.0,1741.0,1710.0,1775.0,1751.0,1766.0,1786.0,95.41156768798828,-21.04571533203125,-64.63825225830078,Left
3311.29296875,68485,1,1743.0,1763.0,1776.0,1813.0,1895.0,1753.0,1765.0,1757.0,95.41156768798828,-21.04571533203125,-64.63825225830078,Left
3313.29296875,68485,1,1719.0,1759.0,1683.0,1724.0,1621.0,1752.0,1763.0,1707.0,95.41156768798828,-21.04571533203125,-64.63825225830078,Left
3315.29296875,68485,1,1695.0,1751.0,1736.0,1641.0,1656.0,1753.0,1763.0,1751.0,95.41156768798828,-21.04571533203125,-64.63825225830078,Left
3317.29296875,68485,1,1709.0,1757.0,1768.0,1723.0,2029.0,1752.0,1753.0,1763.0,95.41156768798828,-21.04571533203125,-64.63825225830078,Left
3317.384033203125,68486,1,1742.0,1758.0,1781.0,1716.0,1768.0,1749.0,1763.0,1727.0,95.41156768798828,-21.04571533203125,-64.63825225830078,Left
3319.384033203125,68486,1,1775.0,1755.0,1785.0,1628.0,1865.0,1751.0,1759.0,1749.0,95.41156768798828,-21.04571533203125,-64.63825225830078,Left
3321.384033203125,68486,1,1811.0,1755.0,1785.0,1623.0,1593.0,1753.0,1761.0,1763.0,95.41156768798828,-21.04571533203125,-64.63825225830078,Left
3323.384033203125,68486,1,1822.0,1757.0,1769.0,1657.0,1463.0,1753.0,1758.0,1749.0,95.41156768798828,-21.04571533203125,-64.63825225830078,Left
3325.384033203125,68486,1,1803.0,1759.0,1742.0,1813.0,1947.0,1747.0,1762.0,1770.0,95.41156768798828,-21.04571533203125,-64.63825225830078,Left
3327.216796875,68487,1,1771.0,1758.0,1757.0,1837.0,1359.0,1751.0,1764.0,1765.0,95.41156768798828,-21.04571533203125,-64.63825225830078,Left
3329.216796875,68487,1,1746.0,1759.0,1746.0,1800.0,2363.0,1745.0,1767.0,1735.0,95.41156768798828,-21.04571533203125,-64.63825225830078,Left
3331.216796875,68487,1,1708.0,1757.0,1750.0,1819.0,1609.0,1755.0,1765.0,1759.0,95.41156768798828,-21.04571533203125,-64.63825225830078,Left
3333.216796875,68487,1,1696.0,1757.0,1727.0,1702.0,1677.0,1752.0,1763.0,1741.0,95.41156768798828,-21.04571533203125,-64.63825225830078,Left
3335.216796875,68487,1,1701.0,1757.0,1783.0,1726.0,1566.0,1751.0,1767.0,1765.0,95.41156768798828,-21.04571533203125,-64.63825225830078,Left
3339.645751953125,68488,1,1741.0,1767.0,1781.0,1678.0,1963.0,1742.0,1764.0,1724.0,95.41156768798828,-21.04571533203125,-64.63825225830078,Left
3341.645751953125,68488,1,1781.0,1757.0,1755.0,1650.0,1753.0,1755.0,1765.0,1735.0,95.41156768798828,-21.04571533203125,-64.63825225830078,Left
3343.645751953125,68488,1,1805.0,1752.0,1784.0,1645.0,1951.0,1751.0,1757.0,1765.0,95.41156768798828,-21.04571533203125,-64.63825225830078,Left
3345.645751953125,68488,1,1823.0,1757.0,1746.0,1727.0,1469.0,1753.0,1757.0,1752.0,95.41156768798828,-21.04571533203125,-64.63825225830078,Left
3347.645751953125,68488,1,1807.0,1757.0,1747.0,1720.0,1813.0,1753.0,1763.0,1760.0,95.41156768798828,-21.04571533203125,-64.63825225830078,Left
3351.122802734375,68489,1,1778.0,1763.0,1765.0,1675.0,1590.0,1743.0,1754.0,1753.0,95.41156768798828,-21.04571533203125,-64.63825225830078,Left
3353.122802734375,68489,1,1749.0,1757.0,1749.0,1712.0,1767.0,1745.0,1764.0,1749.0,95.41156768798828,-21.04571533203125,-64.63825225830078,Left
3355.122802734375,68489,1,1717.0,1751.0,1741.0,1877.0,1867.0,1754.0,1763.0,1722.0,95.41156768798828,-21.04571533203125,-64.63825225830078,Left
3357.122802734375,68489,1,1695.0,1758.0,1755.0,1893.0,1499.0,1751.0,1765.0,1759.0,95.41156768798828,-21.04571533203125,-64.63825225830078,Left
3359.122802734375,68489,1,1701.0,1759.0,1791.0,1840.0,1689.0,1752.0,1765.0,1763.0,95.41156768798828,-21.04571533203125,-64.63825225830078,Left
3361.18994140625,68490,1,1740.0,1755.0,1803.0,1829.0,1851.0,1753.0,1759.0,1751.0,95.41156768798828,-21.04571533203125,-64.63825225830078,Left
3363.18994140625,68490,1,1781.0,1751.0,1752.0,1831.0,1720.0,1751.0,1765.0,1743.0,95.41156768798828,-21.04571533203125,-64.63825225830078,Left
3365.18994140625,68490,1,1810.0,1753.0,1705.0,1683.0,1747.0,1751.0,1764.0,1770.0,95.41156768798828,-21.04571533203125,-64.63825225830078,Left
3367.18994140625,68490,1,1821.0,1757.0,1749.0,1767.0,1720.0,1745.0,1764.0,1741.0,95.41156768798828,-21.04571533203125,-64.63825225830078,Left
3369.18994140625,68490,1,1813.0,1755.0,1758.0,1829.0,1737.0,1752.0,1753.0,1711.0,95.41156768798828,-21.04571533203125,-64.63825225830078,Left
3367.908935546875,68491,1,1783.0,1763.0,1755.0,1803.0,1771.0,1753.0,1766.0,1747.0,95.41156768798828,-21.04571533203125,-64.63825225830078,Left
3369.908935546875,68491,1,1739.0,1757.0,1752.0,1735.0,1749.0,1751.0,1765.0,1771.0,95.41156768798828,-21.04571533203125,-64.63825225830078,Left
3371.908935546875,68491,1,1719.0,1759.0,1769.0,1727.0,1782.0,1752.0,1765.0,1780.0,95.97645568847656,-20.99591064453125,-64.79460144042969,Left
3373.908935546875,68491,1,1689.0,1759.0,1775.0,1769.0,1735.0,1753.0,1767.0,1763.0,95.97645568847656,-20.99591064453125,-64.79460144042969,Left
3375.908935546875,68491,1,1709.0,1758.0,1783.0,1779.0,1717.0,1751.0,1765.0,1753.0,95.97645568847656,-20.99591064453125,-64.79460144042969,Left
3376.303955078125,68492,1,1741.0,1753.0,1746.0,1783.0,1767.0,1753.0,1761.0,1710.0,95.97645568847656,-20.99591064453125,-64.79460144042969,Left
3378.303955078125,68492,1,1779.0,1755.0,1783.0,1672.0,1723.0,1752.0,1755.0,1747.0,95.97645568847656,-20.99591064453125,-64.79460144042969,Left
3380.303955078125,68492,1,1811.0,1759.0,1753.0,1647.0,1772.0,1749.0,1765.0,1747.0,95.97645568847656,-20.99591064453125,-64.79460144042969,Left
3382.303955078125,68492,1,1821.0,1755.0,1771.0,1707.0,1749.0,1751.0,1767.0,1767.0,95.97645568847656,-20.99591064453125,-64.79460144042969,Left
3384.303955078125,68492,1,1811.0,1757.0,1781.0,1754.0,1743.0,1745.0,1765.0,1768.0,95.97645568847656,-20.99591064453125,-64.79460144042969,Left
3386.296142578125,68493,1,1773.0,1751.0,1743.0,1687.0,1753.0,1751.0,1757.0,1751.0,95.97645568847656,-20.99591064453125,-64.79460144042969,Left
3388.296142578125,68493,1,1750.0,1754.0,1741.0,1724.0,1739.0,1755.0,1759.0,1739.0,95.97645568847656,-20.99591064453125,-64.79460144042969,Left
3390.296142578125,68493,1,1721.0,1757.0,1745.0,1799.0,1692.0,1755.0,1765.0,1752.0,95.97645568847656,-20.99591064453125,-64.79460144042969,Left
3392.296142578125,68493,1,1695.0,1757.0,1747.0,1814.0,1833.0,1753.0,1754.0,1763.0,95.97645568847656,-20.99591064453125,-64.79460144042969,Left
3394.296142578125,68493,1,1701.0,1753.0,1755.0,1799.0,1757.0,1756.0,1753.0,1737.0,95.97645568847656,-20.99591064453125,-64.79460144042969,Left
3399.403076171875,68494,1,1751.0,1756.0,1781.0,1867.0,1723.0,1755.0,1767.0,1755.0,95.97645568847656,-20.99591064453125,-64.79460144042969,Left
3401.403076171875,68494,1,1781.0,1757.0,1784.0,1833.0,1907.0,1753.0,1755.0,1761.0,95.97645568847656,-20.99591064453125,-64.79460144042969,Left
3403.403076171875,68494,1,1813.0,1755.0,1779.0,1833.0,1853.0,1751.0,1765.0,1755.0,95.97645568847656,-20.99591064453125,-64.79460144042969,Left
3405.403076171875,68494,1,1818.0,1757.0,1749.0,1741.0,1561.0,1754.0,1767.0,1755.0,95.97645568847656,-20.99591064453125,-64.79460144042969,Left
3407.403076171875,68494,1,1809.0,1757.0,1741.0,1771.0,1661.0,1754.0,1763.0,1755.0,95.97645568847656,-20.99591064453125,-64.79460144042969,Left
3407.651123046875,68495,1,1783.0,1753.0,1751.0,1767.0,1287.0,1752.0,1759.0,1751.0,95.97645568847656,-20.99591064453125,-64.79460144042969,Left
3409.651123046875,68495,1,1750.0,1757.0,1735.0,1771.0,2159.0,1755.0,1763.0,1739.0,95.97645568847656,-20.99591064453125,-64.79460144042969,Left
3411.651123046875,68495,1,1718.0,1753.0,1749.0,1843.0,1855.0,1752.0,1767.0,1739.0,95.97645568847656,-20.99591064453125,-64.79460144042969,Left
3413.651123046875,68495,1,1689.0,1749.0,1747.0,1909.0,1669.0,1753.0,1763.0,1761.0,95.97645568847656,-20.99591064453125,-64.79460144042969,Left
3415.651123046875,68495,1,1704.0,1757.0,1785.0,1890.0,1831.0,1753.0,1767.0,1747.0,95.97645568847656,-20.99591064453125,-64.79460144042969,Left
3416.55810546875,68496,1,1736.0,1763.0,1803.0,1929.0,1717.0,1749.0,1758.0,1763.0,95.97645568847656,-20.99591064453125,-64.79460144042969,Left
3418.55810546875,68496,1,1779.0,1753.0,1746.0,1907.0,1635.0,1753.0,1764.0,1755.0,95.97645568847656,-20.99591064453125,-64.79460144042969,Left
3420.55810546875,68496,1,1807.0,1755.0,1691.0,1897.0,1779.0,1755.0,1766.0,1723.0,95.97645568847656,-20.99591064453125,-64.79460144042969,Left
3422.55810546875,68496,1,1821.0,1757.0,1771.0,1867.0,1676.0,1753.0,1763.0,1763.0,95.97645568847656,-20.99591064453125,-64.79460144042969,Left
3424.55810546875,68496,1,1807.0,1757.0,1774.0,1832.0,1751.0,1749.0,1762.0,1766.0,95.97645568847656,-20.99591064453125,-64.79460144042969,Left
3426.89208984375,68497,1,1781.0,1754.0,1755.0,1805.0,1752.0,1751.0,1765.0,1765.0,95.97645568847656,-20.99591064453125,-64.79460144042969,Left
3428.89208984375,68497,1,1753.0,1759.0,1753.0,1755.0,1801.0,1753.0,1763.0,1773.0,95.97645568847656,-20.99591064453125,-64.79460144042969,Left
3430.89208984375,68497,1,1718.0,1751.0,1741.0,1749.0,1748.0,1750.0,1753.0,1740.0,95.97645568847656,-20.99591064453125,-64.79460144042969,Left
3432.89208984375,68497,1,1699.0,1757.0,1749.0,1679.0,1661.0,1751.0,1755.0,1735.0,95.97645568847656,-20.99591064453125,-64.79460144042969,Left
3434.89208984375,68497,1,1703.0,1750.0,1763.0,1741.0,1493.0,1752.0,1763.0,1751.0,95.97645568847656,-20.99591064453125,-64.79460144042969,Left
3437.5830078125,68498,1,1733.0,1758.0,1765.0,1607.0,2142.0,1752.0,1764.0,1753.0,96.49467468261719,-20.811866760253906,-64.66659545898438,Left
3439.5830078125,68498,1,1769.0,1758.0,1775.0,1587.0,1789.0,1754.0,1764.0,1743.0,96.49467468261719,-20.811866760253906,-64.66659545898438,Left
3441.5830078125,68498,1,1805.0,1755.0,1788.0,1611.0,1727.0,1753.0,1755.0,1739.0,96.49467468261719,-20.811866760253906,-64.66659545898438,Left
3443.5830078125,68498,1,1816.0,1763.0,1758.0,1629.0,1643.0,1751.0,1759.0,1717.0,96.49467468261719,-20.811866760253906,-64.66659545898438,Left
3445.5830078125,68498,1,1812.0,1757.0,1757.0,1715.0,1706.0,1753.0,1764.0,1764.0,96.49467468261719,-20.811866760253906,-64.66659545898438,Left
3447.52783203125,68499,1,1781.0,1763.0,1753.0,1745.0,1849.0,1747.0,1763.0,1755.0,96.49467468261719,-20.811866760253906,-64.66659545898438,Left
3449.52783203125,68499,1,1749.0,1757.0,1723.0,1797.0,1853.0,1753.0,1765.0,1751.0,96.49467468261719,-20.811866760253906,-64.66659545898438,Left
3451.52783203125,68499,1,1719.0,1759.0,1719.0,1707.0,1683.0,1749.0,1759.0,1741.0,96.49467468261719,-20.811866760253906,-64.66659545898438,Left
3453.52783203125,68499,1,1699.0,1750.0,1751.0,1875.0,1727.0,1749.0,1766.0,1757.0,96.49467468261719,-20.811866760253906,-64.66659545898438,Left
3455.52783203125,68499,1,1695.0,1757.0,1756.0,1846.0,1691.0,1751.0,1766.0,1762.0,96.49467468261719,-20.811866760253906,-64.66659545898438,Left
3457.573974609375,68500,1,1727.0,1756.0,1775.0,1843.0,1801.0,1743.0,1765.0,1763.0,96.49467468261719,-20.811866760253906,-64.66659545898438,Left
3459.573974609375,68500,1,1769.0,1749.0,1801.0,1705.0,1507.0,1754.0,1761.0,1772.0,96.49467468261719,-20.811866760253906,-64.66659545898438,Left
3461.573974609375,68500,1,1810.0,1749.0,1769.0,1691.0,1870.0,1746.0,1764.0,1741.0,96.49467468261719,-20.811866760253906,-64.66659545898438,Left
3463.573974609375,68500,1,1820.0,1749.0,1763.0,1639.0,1879.0,1753.0,1759.0,1753.0,96.49467468261719,-20.811866760253906,-64.66659545898438,Left
3465.573974609375,68500,1,1811.0,1758.0,1749.0,1698.0,1791.0,1752.0,1767.0,1746.0,96.49467468261719,-20.811866760253906,-64.66659545898438,Left
3466.5400390625,68501,1,1787.0,1743.0,1727.0,1801.0,1772.0,1753.0,1763.0,1720.0,96.49467468261719,-20.811866760253906,-64.66659545898438,Left
3468.5400390625,68501,1,1752.0,1749.0,1722.0,1763.0,1755.0,1749.0,1755.0,1737.0,96.49467468261719,-20.811866760253906,-64.66659545898438,Left
3470.5400390625,68501,1,1721.0,1757.0,1735.0,1829.0,1727.0,1751.0,1763.0,1733.0,96.49467468261719,-20.811866760253906,-64.66659545898438,Left
3472.5400390625,68501,1,1703.0,1757.0,1747.0,1800.0,1736.0,1753.0,1763.0,1765.0,96.49467468261719,-20.811866760253906,-64.66659545898438,Left
3474.5400390625,68501,1,1705.0,1757.0,1770.0,1747.0,1743.0,1754.0,1759.0,1751.0,96.49467468261719,-20.811866760253906,-64.66659545898438,Left
3478.468017578125,68502,1,1733.0,1755.0,1789.0,1715.0,1671.0,1751.0,1763.0,1755.0,96.49467468261719,-20.811866760253906,-64.66659545898438,Left
3480.468017578125,68502,1,1773.0,1758.0,1791.0,1800.0,1758.0,1753.0,1759.0,1739.0,96.49467468261719,-20.811866760253906,-64.66659545898438,Left
3482.468017578125,68502,1,1810.0,1753.0,1767.0,1855.0,1821.0,1751.0,1763.0,1753.0,96.49467468261719,-20.811866760253906,-64.66659545898438,Left
3484.468017578125,68502,1,1821.0,1759.0,1765.0,1885.0,1715.0,1753.0,1759.0,1753.0,96.49467468261719,-20.811866760253906,-64.66659545898438,Left
3486.468017578125,68502,1,1814.0,1757.0,1739.0,1815.0,1577.0,1753.0,1765.0,1753.0,96.49467468261719,-20.811866760253906,-64.66659545898438,Left
3486.669677734375,68503,1,1787.0,1767.0,1741.0,1718.0,1791.0,1752.0,1759.0,1741.0,96.49467468261719,-20.811866760253906,-64.66659545898438,Left
3488.669677734375,68503,1,1751.0,1748.0,1755.0,1702.0,1754.0,1752.0,1763.0,1771.0,96.49467468261719,-20.811866760253906,-64.66659545898438,Left
3490.669677734375,68503,1,1717.0,1755.0,1741.0,1691.0,1799.0,1753.0,1763.0,1753.0,96.49467468261719,-20.811866760253906,-64.66659545898438,Left
3492.669677734375,68503,1,1701.0,1758.0,1765.0,1718.0,1599.0,1751.0,1767.0,1747.0,96.49467468261719,-20.811866760253906,-64.66659545898438,Left
3494.669677734375,68503,1,1705.0,1757.0,1743.0,1685.0,2110.0,1751.0,1765.0,1726.0,96.49467468261719,-20.811866760253906,-64.66659545898438,Left
3497.6640625,68504,1,1733.0,1751.0,1765.0,1775.0,1753.0,1749.0,1765.0,1742.0,96.49467468261719,-20.811866760253906,-64.66659545898438,Left
3499.6640625,68504,1,1768.0,1759.0,1757.0,1785.0,1733.0,1752.0,1765.0,1741.0,96.49467468261719,-20.811866760253906,-64.66659545898438,Left
3501.6640625,68504,1,1804.0,1755.0,1783.0,1747.0,1757.0,1741.0,1764.0,1767.0,96.50279235839844,-20.713884353637695,-64.61117553710938,Left
3503.6640625,68504,1,1813.0,1758.0,1775.0,1711.0,1723.0,1752.0,1763.0,1753.0,96.50279235839844,-20.713884353637695,-64.61117553710938,Left
3505.6640625,68504,1,1817.0,1757.0,1757.0,1691.0,1734.0,1754.0,1761.0,1755.0,96.50279235839844,-20.713884353637695,-64.61117553710938,Left
3507.43115234375,68505,1,1789.0,1755.0,1733.0,1688.0,1703.0,1735.0,1758.0,1745.0,96.50279235839844,-20.713884353637695,-64.61117553710938,Left
3509.43115234375,68505,1,1752.0,1756.0,1735.0,1703.0,1673.0,1753.0,1753.0,1756.0,96.50279235839844,-20.713884353637695,-64.61117553710938,Left
3511.43115234375,68505,1,1723.0,1757.0,1749.0,1773.0,1775.0,1755.0,1766.0,1739.0,96.50279235839844,-20.713884353637695,-64.61117553710938,Left
3513.43115234375,68505,1,1701.0,1755.0,1756.0,1843.0,1753.0,1754.0,1765.0,1752.0,96.50279235839844,-20.713884353637695,-64.61117553710938,Left
3515.43115234375,68505,1,1695.0,1756.0,1768.0,1797.0,1820.0,1749.0,1766.0,1763.0,96.50279235839844,-20.713884353637695,-64.61117553710938,Left
3516.60009765625,68506,1,1720.0,1758.0,1791.0,1704.0,1724.0,1743.0,1763.0,1763.0,96.50279235839844,-20.713884353637695,-64.61117553710938,Left
3518.60009765625,68506,1,1769.0,1761.0,1736.0,1705.0,1863.0,1755.0,1753.0,1739.0,96.50279235839844,-20.713884353637695,-64.61117553710938,Left
3520.60009765625,68506,1,1806.0,1755.0,1781.0,1789.0,1723.0,1753.0,1763.0,1755.0,96.50279235839844,-20.713884353637695,-64.61117553710938,Left
3522.60009765625,68506,1,1815.0,1756.0,1753.0,1747.0,1723.0,1751.0,1766.0,1751.0,96.50279235839844,-20.713884353637695,-64.61117553710938,Left
3524.60009765625,68506,1,1815.0,1758.0,1753.0,1743.0,1765.0,1751.0,1759.0,1762.0,96.50279235839844,-20.713884353637695,-64.61117553710938,Left
3528.18896484375,68507,1,1789.0,1754.0,1756.0,1820.0,1747.0,1751.0,1763.0,1767.0,96.50279235839844,-20.713884353637695,-64.61117553710938,Left
3530.18896484375,68507,1,1754.0,1756.0,1739.0,1828.0,1687.0,1754.0,1763.0,1753.0,96.50279235839844,-20.713884353637695,-64.61117553710938,Left
3532.18896484375,68507,1,1724.0,1758.0,1758.0,1799.0,1747.0,1755.0,1762.0,1735.0,96.50279235839844,-20.713884353637695,-64.61117553710938,Left
3534.18896484375,68507,1,1691.0,1756.0,1749.0,1837.0,1739.0,1751.0,1765.0,1738.0,96.50279235839844,-20.713884353637695,-64.61117553710938,Left
3536.18896484375,68507,1,1705.0,1750.0,1717.0,1758.0,1960.0,1750.0,1765.0,1720.0,96.50279235839844,-20.713884353637695,-64.61117553710938,Left
3539.81494140625,68508,1,1720.0,1759.0,1755.0,1724.0,1741.0,1751.0,1764.0,1749.0,96.50279235839844,-20.713884353637695,-64.61117553710938,Left
3541.81494140625,68508,1,1769.0,1752.0,1783.0,1701.0,1653.0,1745.0,1765.0,1753.0,96.50279235839844,-20.713884353637695,-64.61117553710938,Left
3543.81494140625,68508,1,1805.0,1757.0,1797.0,1788.0,1752.0,1752.0,1766.0,1755.0,96.50279235839844,-20.713884353637695,-64.61117553710938,Left
3545.81494140625,68508,1,1817.0,1749.0,1791.0,1693.0,1634.0,1751.0,1755.0,1767.0,96.50279235839844,-20.713884353637695,-64.61117553710938,Left
3547.81494140625,68508,1,1819.0,1759.0,1755.0,1715.0,1591.0,1742.0,1765.0,1772.0,96.50279235839844,-20.713884353637695,-64.61117553710938,Left
3547.182861328125,68509,1,1799.0,1752.0,1685.0,1631.0,1956.0,1755.0,1767.0,1725.0,96.50279235839844,-20.713884353637695,-64.61117553710938,Left
3549.182861328125,68509,1,1759.0,1750.0,1727.0,1604.0,1663.0,1746.0,1759.0,1747.0,96.50279235839844,-20.713884353637695,-64.61117553710938,Left
3551.182861328125,68509,1,1723.0,1757.0,1739.0,1704.0,1820.0,1745.0,1765.0,1741.0,96.50279235839844,-20.713884353637695,-64.61117553710938,Left
3553.182861328125,68509,1,1703.0,1755.0,1747.0,1791.0,1829.0,1743.0,1766.0,1749.0,96.50279235839844,-20.713884353637695,-64.61117553710938,Left
3555.182861328125,68509,1,1700.0,1758.0,1772.0,1787.0,1757.0,1753.0,1765.0,1751.0,96.50279235839844,-20.713884353637695,-64.61117553710938,Left
3557.14794921875,68510,1,1718.0,1759.0,1785.0,1807.0,1706.0,1752.0,1765.0,1759.0,96.50279235839844,-20.713884353637695,-64.61117553710938,Left
3559.14794921875,68510,1,1763.0,1751.0,1783.0,1816.0,1735.0,1755.0,1757.0,1757.0,96.50279235839844,-20.713884353637695,-64.61117553710938,Left
3561.14794921875,68510,1,1803.0,1755.0,1775.0,1704.0,1733.0,1747.0,1755.0,1745.0,96.50279235839844,-20.713884353637695,-64.61117553710938,Left
3563.14794921875,68510,1,1817.0,1758.0,1755.0,1685.0,1725.0,1753.0,1763.0,1749.0,96.50279235839844,-20.713884353637695,-64.61117553710938,Left
3565.14794921875,68510,1,1813.0,1762.0,1763.0,1685.0,1531.0,1753.0,1762.0,1747.0,96.50279235839844,-20.713884353637695,-64.61117553710938,Left
3566.744873046875,68511,1,1779.0,1753.0,1753.0,1787.0,2087.0,1753.0,1763.0,1757.0,96.08743286132812,-20.796483993530273,-64.66293334960938,Left
3568.744873046875,68511,1,1757.0,1749.0,1736.0,1799.0,1699.0,1741.0,1755.0,1747.0,96.08743286132812,-20.796483993530273,-64.66293334960938,Left
3570.744873046875,68511,1,1724.0,1757.0,1754.0,1835.0,1663.0,1755.0,1759.0,1757.0,96.08743286132812,-20.796483993530273,-64.66293334960938,Left
3572.744873046875,68511,1,1704.0,1757.0,1751.0,1851.0,1756.0,1751.0,1764.0,1758.0,96.08743286132812,-20.796483993530273,-64.66293334960938,Left
3574.744873046875,68511,1,1703.0,1756.0,1752.0,1831.0,1950.0,1747.0,1763.0,1740.0,96.08743286132812,-20.796483993530273,-64.66293334960938,Left
3577.60791015625,68512,1,1719.0,1754.0,1799.0,1791.0,1560.0,1743.0,1755.0,1751.0,96.08743286132812,-20.796483993530273,-64.66293334960938,Left
3579.60791015625,68512,1,1769.0,1756.0,1779.0,1877.0,1763.0,1752.0,1765.0,1725.0,96.08743286132812,-20.796483993530273,-64.66293334960938,Left
3581.60791015625,68512,1,1805.0,1751.0,1759.0,1833.0,1963.0,1751.0,1765.0,1767.0,96.08743286132812,-20.796483993530273,-64.66293334960938,Left
3583.60791015625,68512,1,1819.0,1759.0,1767.0,1773.0,1751.0,1753.0,1763.0,1756.0,96.08743286132812,-20.796483993530273,-64.66293334960938,Left
3585.60791015625,68512,1,1815.0,1758.0,1747.0,1799.0,1769.0,1750.0,1753.0,1757.0,96.08743286132812,-20.796483993530273,-64.66293334960938,Left
3587.15478515625,68513,1,1791.0,1759.0,1725.0,1831.0,1639.0,1749.0,1753.0,1751.0,96.08743286132812,-20.796483993530273,-64.66293334960938,Left
3589.15478515625,68513,1,1756.0,1750.0,1735.0,1787.0,1739.0,1755.0,1757.0,1755.0,96.08743286132812,-20.796483993530273,-64.66293334960938,Left
3591.15478515625,68513,1,1716.0,1758.0,1753.0,1837.0,1735.0,1745.0,1765.0,1752.0,96.08743286132812,-20.796483993530273,-64.66293334960938,Left
3593.15478515625,68513,1,1701.0,1751.0,1757.0,1765.0,1755.0,1753.0,1765.0,1757.0,96.08743286132812,-20.796483993530273,-64.66293334960938,Left
3595.15478515625,68513,1,1701.0,1757.0,1767.0,1705.0,1736.0,1752.0,1767.0,1742.0,96.08743286132812,-20.796483993530273,-64.66293334960938,Left
3596.824951171875,68514,1,1723.0,1752.0,1781.0,1640.0,1735.0,1755.0,1762.0,1754.0,96.08743286132812,-20.796483993530273,-64.66293334960938,Left
3598.824951171875,68514,1,1771.0,1756.0,1785.0,1661.0,1763.0,1745.0,1763.0,1720.0,96.08743286132812,-20.796483993530273,-64.66293334960938,Left
3600.824951171875,68514,1,1797.0,1757.0,1757.0,1655.0,1837.0,1755.0,1757.0,1741.0,96.08743286132812,-20.796483993530273,-64.66293334960938,Left
3602.824951171875,68514,1,1813.0,1759.0,1771.0,1693.0,1655.0,1755.0,1763.0,1768.0,96.08743286132812,-20.796483993530273,-64.66293334960938,Left
3604.824951171875,68514,1,1815.0,1751.0,1749.0,1738.0,1685.0,1751.0,1764.0,1777.0,96.08743286132812,-20.796483993530273,-64.66293334960938,Left
3606.864990234375,68515,1,1799.0,1753.0,1751.0,1845.0,1967.0,1751.0,1755.0,1757.0,96.08743286132812,-20.796483993530273,-64.66293334960938,Left
3608.864990234375,68515,1,1755.0,1757.0,1735.0,1863.0,1834.0,1751.0,1763.0,1737.0,96.08743286132812,-20.796483993530273,-64.66293334960938,Left
3610.864990234375,68515,1,1721.0,1757.0,1769.0,1759.0,1725.0,1749.0,1764.0,1741.0,96.08743286132812,-20.796483993530273,-64.66293334960938,Left
3612.864990234375,68515,1,1694.0,1759.0,1735.0,1773.0,1739.0,1753.0,1756.0,1739.0,96.08743286132812,-20.796483993530273,-64.66293334960938,Left
3614.864990234375,68515,1,1700.0,1751.0,1741.0,1741.0,1748.0,1751.0,1762.0,1748.0,96.08743286132812,-20.796483993530273,-64.66293334960938,Left
3616.404052734375,68516,1,1723.0,1751.0,1771.0,1771.0,1742.0,1749.0,1765.0,1743.0,96.08743286132812,-20.796483993530273,-64.66293334960938,Left
3618.404052734375,68516,1,1767.0,1758.0,1775.0,1743.0,1736.0,1753.0,1764.0,1734.0,96.08743286132812,-20.796483993530273,-64.66293334960938,Left
3620.404052734375,68516,1,1807.0,1749.0,1779.0,1749.0,1811.0,1755.0,1767.0,1751.0,96.08743286132812,-20.796483993530273,-64.66293334960938,Left
3622.404052734375,68516,1,1818.0,1758.0,1769.0,1671.0,1662.0,1755.0,1764.0,1748.0,96.08743286132812,-20.796483993530273,-64.66293334960938,Left
3624.404052734375,68516,1,1817.0,1761.0,1763.0,1772.0,1774.0,1755.0,1755.0,1751.0,96.08743286132812,-20.796483993530273,-64.66293334960938,Left
3626.347900390625,68517,1,1791.0,1751.0,1741.0,1783.0,1759.0,1743.0,1753.0,1751.0,96.08743286132812,-20.796483993530273,-64.66293334960938,Left
3628.347900390625,68517,1,1763.0,1759.0,1739.0,1844.0,1752.0,1745.0,1767.0,1762.0,96.08743286132812,-20.796483993530273,-64.66293334960938,Left
3630.347900390625,68517,1,1732.0,1757.0,1727.0,1815.0,1739.0,1741.0,1756.0,1751.0,95.9813003540039,-20.798240661621094,-64.66163635253906,Left
3632.347900390625,68517,1,1703.0,1757.0,1779.0,1791.0,1751.0,1752.0,1754.0,1763.0,95.9813003540039,-20.798240661621094,-64.66163635253906,Left
3634.347900390625,68517,1,1696.0,1757.0,1757.0,1811.0,1763.0,1752.0,1764.0,1755.0,95.9813003540039,-20.798240661621094,-64.66163635253906,Left
3636.450927734375,68518,1,1720.0,1747.0,1769.0,1819.0,1724.0,1754.0,1763.0,1746.0,95.9813003540039,-20.798240661621094,-64.66163635253906,Left
3638.450927734375,68518,1,1763.0,1761.0,1769.0,1723.0,1651.0,1752.0,1765.0,1755.0,95.9813003540039,-20.798240661621094,-64.66163635253906,Left
3640.450927734375,68518,1,1801.0,1759.0,1791.0,1664.0,1845.0,1755.0,1765.0,1751.0,95.9813003540039,-20.798240661621094,-64.66163635253906,Left
3642.450927734375,68518,1,1818.0,1757.0,1745.0,1639.0,1691.0,1749.0,1755.0,1721.0,95.9813003540039,-20.798240661621094,-64.66163635253906,Left
3644.450927734375,68518,1,1816.0,1752.0,1749.0,1642.0,1835.0,1751.0,1759.0,1769.0,95.9813003540039,-20.798240661621094,-64.66163635253906,Left
3646.43310546875,68519,1,1799.0,1753.0,1765.0,1579.0,1802.0,1755.0,1761.0,1774.0,95.9813003540039,-20.798240661621094,-64.66163635253906,Left
3648.43310546875,68519,1,1758.0,1755.0,1741.0,1675.0,1701.0,1751.0,1764.0,1762.0,95.9813003540039,-20.798240661621094,-64.66163635253906,Left
3650.43310546875,68519,1,1725.0,1759.0,1751.0,1780.0,1785.0,1751.0,1754.0,1756.0,95.9813003540039,-20.798240661621094,-64.66163635253906,Left
3652.43310546875,68519,1,1703.0,1757.0,1739.0,1717.0,1708.0,1755.0,1763.0,1737.0,95.9813003540039,-20.798240661621094,-64.66163635253906,Left
3654.43310546875,68519,1,1701.0,1758.0,1693.0,1761.0,1791.0,1751.0,1764.0,1705.0,95.9813003540039,-20.798240661621094,-64.66163635253906,Left
3656.81884765625,68520,1,1721.0,1764.0,1755.0,1811.0,1863.0,1752.0,1762.0,1737.0,95.9813003540039,-20.798240661621094,-64.66163635253906,Left
3658.81884765625,68520,1,1763.0,1749.0,1764.0,1835.0,1553.0,1751.0,1759.0,1724.0,95.9813003540039,-20.798240661621094,-64.66163635253906,Left
3660.81884765625,68520,1,1799.0,1751.0,1804.0,1770.0,1683.0,1751.0,1759.0,1779.0,95.9813003540039,-20.798240661621094,-64.66163635253906,Left
3662.81884765625,68520,1,1817.0,1755.0,1785.0,1703.0,1897.0,1752.0,1766.0,1782.0,95.9813003540039,-20.798240661621094,-64.66163635253906,Left
3664.81884765625,68520,1,1819.0,1756.0,1759.0,1590.0,1897.0,1753.0,1754.0,1758.0,95.9813003540039,-20.798240661621094,-64.66163635253906,Left
3667.353759765625,68521,1,1789.0,1759.0,1745.0,1687.0,1672.0,1752.0,1765.0,1761.0,95.9813003540039,-20.798240661621094,-64.66163635253906,Left
3669.353759765625,68521,1,1764.0,1757.0,1737.0,1773.0,1653.0,1754.0,1767.0,1753.0,95.9813003540039,-20.798240661621094,-64.66163635253906,Left
3671.353759765625,68521,1,1734.0,1758.0,1747.0,1822.0,1991.0,1751.0,1756.0,1750.0,95.9813003540039,-20.798240661621094,-64.66163635253906,Left
3673.353759765625,68521,1,1708.0,1752.0,1751.0,1837.0,1659.0,1753.0,1765.0,1751.0,95.9813003540039,-20.798240661621094,-64.66163635253906,Left
3675.353759765625,68521,1,1707.0,1751.0,1754.0,1833.0,1627.0,1753.0,1763.0,1739.0,95.9813003540039,-20.798240661621094,-64.66163635253906,Left
3677.271240234375,68522,1,1724.0,1759.0,1771.0,1862.0,1833.0,1754.0,1758.0,1751.0,95.9813003540039,-20.798240661621094,-64.66163635253906,Left
3679.271240234375,68522,1,1767.0,1757.0,1773.0,1861.0,1811.0,1751.0,1765.0,1751.0,95.9813003540039,-20.798240661621094,-64.66163635253906,Left
3681.271240234375,68522,1,1804.0,1756.0,1773.0,1851.0,1736.0,1747.0,1765.0,1752.0,95.9813003540039,-20.798240661621094,-64.66163635253906,Left
3683.271240234375,68522,1,1820.0,1755.0,1765.0,1811.0,1692.0,1752.0,1755.0,1755.0,95.9813003540039,-20.798240661621094,-64.66163635253906,Left
3685.271240234375,68522,1,1821.0,1756.0,1759.0,1752.0,1868.0,1752.0,1763.0,1757.0,95.9813003540039,-20.798240661621094,-64.66163635253906,Left
3687.597900390625,68523,1,1799.0,1755.0,1749.0,1718.0,1766.0,1754.0,1763.0,1765.0,95.9813003540039,-20.798240661621094,-64.66163635253906,Left
3689.597900390625,68523,1,1767.0,1755.0,1748.0,1693.0,1721.0,1751.0,1765.0,1756.0,95.9813003540039,-20.798240661621094,-64.66163635253906,Left
3691.597900390625,68523,1,1735.0,1750.0,1736.0,1785.0,1685.0,1743.0,1765.0,1750.0,95.9813003540039,-20.798240661621094,-64.66163635253906,Left
3693.597900390625,68523,1,1701.0,1757.0,1710.0,1772.0,1735.0,1753.0,1763.0,1749.0,95.9813003540039,-20.798240661621094,-64.66163635253906,Left
3695.597900390625,68523,1,1705.0,1759.0,1755.0,1761.0,1829.0,1747.0,1768.0,1762.0,95.9813003540039,-20.798240661621094,-64.66163635253906,Left
3696.52978515625,68524,1,1720.0,1751.0,1759.0,1711.0,1692.0,1753.0,1763.0,1735.0,95.7953872680664,-20.744232177734375,-64.53450775146484,Left
3698.52978515625,68524,1,1754.0,1757.0,1773.0,1771.0,1769.0,1753.0,1765.0,1749.0,95.7953872680664,-20.744232177734375,-64.53450775146484,Left
3700.52978515625,68524,1,1803.0,1757.0,1791.0,1723.0,1762.0,1754.0,1765.0,1749.0,95.7953872680664,-20.744232177734375,-64.53450775146484,Left
3702.52978515625,68524,1,1819.0,1762.0,1801.0,1720.0,1751.0,1747.0,1755.0,1752.0,95.7953872680664,-20.744232177734375,-64.53450775146484,Left
3704.52978515625,68524,1,1820.0,1752.0,1735.0,1764.0,1741.0,1753.0,1753.0,1754.0,95.7953872680664,-20.744232177734375,-64.53450775146484,Left
3708.12890625,68525,1,1800.0,1751.0,1659.0,1871.0,1750.0,1751.0,1767.0,1737.0,95.7953872680664,-20.744232177734375,-64.53450775146484,Left
3710.12890625,68525,1,1759.0,1762.0,1735.0,1850.0,1749.0,1754.0,1763.0,1725.0,95.7953872680664,-20.744232177734375,-64.53450775146484,Left
3712.12890625,68525,1,1735.0,1756.0,1753.0,1876.0,1787.0,1753.0,1767.0,1747.0,95.7953872680664,-20.744232177734375,-64.53450775146484,Left
3714.12890625,68525,1,1701.0,1757.0,1757.0,1842.0,1717.0,1753.0,1767.0,1755.0,95.7953872680664,-20.744232177734375,-64.53450775146484,Left
3716.12890625,68525,1,1692.0,1763.0,1768.0,1756.0,1681.0,1745.0,1765.0,1765.0,95.7953872680664,-20.744232177734375,-64.53450775146484,Left
3716.792724609375,68526,1,1721.0,1756.0,1757.0,1805.0,1790.0,1753.0,1765.0,1751.0,95.7953872680664,-20.744232177734375,-64.53450775146484,Left
3718.792724609375,68526,1,1755.0,1757.0,1789.0,1751.0,1799.0,1745.0,1765.0,1769.0,95.7953872680664,-20.744232177734375,-64.53450775146484,Left
3720.792724609375,68526,1,1802.0,1751.0,1784.0,1717.0,1803.0,1755.0,1764.0,1763.0,95.7953872680664,-20.744232177734375,-64.53450775146484,Left
3722.792724609375,68526,1,1818.0,1761.0,1773.0,1724.0,1703.0,1753.0,1765.0,1754.0,95.7953872680664,-20.744232177734375,-64.53450775146484,Left
3724.792724609375,68526,1,1821.0,1757.0,1740.0,1787.0,1720.0,1753.0,1763.0,1741.0,95.7953872680664,-20.744232177734375,-64.53450775146484,Left
3726.96875,68527,1,1798.0,1763.0,1749.0,1887.0,1749.0,1753.0,1763.0,1763.0,95.7953872680664,-20.744232177734375,-64.53450775146484,Left
