Timestamp_ms,Packet_Number,Trial_ID,Ch1,Ch2,Ch3,Ch4,Ch5,Ch6,Ch7,Ch8,Ch9,Ch10,Ch11,Label
1988.7559814453125,91809,1,1805.0,1759.0,1723.0,1762.0,1753.0,1753.0,1762.0,1736.0,84.10408020019531,-16.985157012939453,-68.79322052001953,Left
1990.7559814453125,91809,1,1791.0,1753.0,1762.0,1817.0,1747.0,1753.0,1764.0,1749.0,84.10408020019531,-16.985157012939453,-68.79322052001953,Left
1992.7559814453125,91809,1,1763.0,1759.0,1780.0,1806.0,1756.0,1755.0,1756.0,1749.0,84.10408020019531,-16.985157012939453,-68.79322052001953,Left
1994.7559814453125,91809,1,1738.0,1751.0,1753.0,1801.0,1747.0,1752.0,1767.0,1751.0,84.10408020019531,-16.985157012939453,-68.79322052001953,Left
1996.7559814453125,91809,1,1715.0,1757.0,1815.0,1782.0,1756.0,1751.0,1764.0,1749.0,84.10408020019531,-16.985157012939453,-68.79322052001953,Left
1990.7159423828125,91810,1,1706.0,1757.0,1716.0,1783.0,1750.0,1749.0,1763.0,1737.0,84.10408020019531,-16.985157012939453,-68.79322052001953,Left
1992.7159423828125,91810,1,1723.0,1751.0,1721.0,1812.0,1756.0,1754.0,1763.0,1750.0,84.10408020019531,-16.985157012939453,-68.79322052001953,Left
1994.7159423828125,91810,1,1763.0,1756.0,1701.0,1836.0,1752.0,1752.0,1765.0,1736.0,84.10408020019531,-16.985157012939453,-68.79322052001953,Left
1996.7159423828125,91810,1,1798.0,1756.0,1786.0,1750.0,1750.0,1753.0,1765.0,1743.0,84.10408020019531,-16.985157012939453,-68.79322052001953,Left
1998.7159423828125,91810,1,1814.0,1756.0,1791.0,1727.0,1758.0,1752.0,1763.0,1743.0,84.10408020019531,-16.985157012939453,-68.79322052001953,Left
1999.4261474609375,91811,1,1807.0,1763.0,1813.0,1727.0,1755.0,1753.0,1765.0,1772.0,84.10408020019531,-16.985157012939453,-68.79322052001953,Left
2001.4261474609375,91811,1,1787.0,1757.0,1735.0,1639.0,1757.0,1755.0,1757.0,1750.0,84.10408020019531,-16.985157012939453,-68.79322052001953,Left
2003.4261474609375,91811,1,1768.0,1751.0,1722.0,1561.0,1753.0,1753.0,1763.0,1754.0,84.10408020019531,-16.985157012939453,-68.79322052001953,Left
2005.4261474609375,91811,1,1739.0,1757.0,1703.0,1643.0,1758.0,1753.0,1763.0,1723.0,84.10408020019531,-16.985157012939453,-68.79322052001953,Left
2007.4261474609375,91811,1,1717.0,1756.0,1802.0,1756.0,1743.0,1753.0,1767.0,1749.0,84.10408020019531,-16.985157012939453,-68.79322052001953,Left
2009.62109375,91812,1,1710.0,1750.0,1810.0,1769.0,1755.0,1754.0,1765.0,1765.0,84.10408020019531,-16.985157012939453,-68.79322052001953,Left
2011.62109375,91812,1,1723.0,1757.0,1676.0,1829.0,1755.0,1743.0,1767.0,1758.0,84.10408020019531,-16.985157012939453,-68.79322052001953,Left
2013.62109375,91812,1,1763.0,1757.0,1804.0,1799.0,1757.0,1754.0,1753.0,1749.0,84.10408020019531,-16.985157012939453,-68.79322052001953,Left
2015.62109375,91812,1,1790.0,1759.0,1788.0,1893.0,1752.0,1751.0,1767.0,1755.0,84.10408020019531,-16.985157012939453,-68.79322052001953,Left
2017.62109375,91812,1,1810.0,1759.0,1765.0,1901.0,1754.0,1743.0,1766.0,1745.0,84.10408020019531,-16.985157012939453,-68.79322052001953,Left
2021.087158203125,91813,1,1810.0,1756.0,1751.0,1798.0,1757.0,1753.0,1766.0,1751.0,84.10408020019531,-16.985157012939453,-68.79322052001953,Left
2023.087158203125,91813,1,1799.0,1757.0,1725.0,1821.0,1753.0,1753.0,1765.0,1746.0,84.10408020019531,-16.985157012939453,-68.79322052001953,Left
2025.087158203125,91813,1,1766.0,1757.0,1734.0,1843.0,1754.0,1749.0,1765.0,1751.0,84.10408020019531,-16.985157012939453,-68.79322052001953,Left
2027.087158203125,91813,1,1741.0,1757.0,1771.0,1816.0,1755.0,1751.0,1765.0,1753.0,84.10408020019531,-16.985157012939453,-68.79322052001953,Left
2029.087158203125,91813,1,1718.0,1757.0,1773.0,1831.0,1755.0,1743.0,1755.0,1759.0,84.10408020019531,-16.985157012939453,-68.79322052001953,Left
2035.5291748046875,91814,1,1711.0,1765.0,1756.0,1883.0,1753.0,1743.0,1763.0,1746.0,84.10408020019531,-16.985157012939453,-68.79322052001953,Left
2037.5291748046875,91814,1,1725.0,1750.0,1753.0,1877.0,1753.0,1755.0,1765.0,1750.0,84.10408020019531,-16.985157012939453,-68.79322052001953,Left
2039.5291748046875,91814,1,1758.0,1758.0,1764.0,1735.0,1753.0,1755.0,1765.0,1751.0,84.10408020019531,-16.985157012939453,-68.79322052001953,Left
2041.5291748046875,91814,1,1791.0,1749.0,1769.0,1707.0,1755.0,1750.0,1765.0,1753.0,84.10408020019531,-16.985157012939453,-68.79322052001953,Left
2043.5291748046875,91814,1,1805.0,1751.0,1767.0,1706.0,1748.0,1751.0,1767.0,1733.0,84.10408020019531,-16.985157012939453,-68.79322052001953,Left
2041.3990478515625,91815,1,1809.0,1763.0,1753.0,1737.0,1755.0,1741.0,1757.0,1751.0,84.10408020019531,-16.985157012939453,-68.79322052001953,Left
2043.3990478515625,91815,1,1798.0,1755.0,1751.0,1677.0,1757.0,1753.0,1763.0,1783.0,84.10408020019531,-16.985157012939453,-68.79322052001953,Left
2045.3990478515625,91815,1,1769.0,1755.0,1751.0,1688.0,1759.0,1755.0,1764.0,1779.0,84.1761474609375,-16.936298370361328,-68.91609191894531,Left
2047.3990478515625,91815,1,1741.0,1754.0,1759.0,1656.0,1756.0,1755.0,1768.0,1753.0,84.1761474609375,-16.936298370361328,-68.91609191894531,Left
2049.39892578125,91815,1,1715.0,1757.0,1757.0,1641.0,1757.0,1755.0,1767.0,1749.0,84.1761474609375,-16.936298370361328,-68.91609191894531,Left
2051.050048828125,91816,1,1709.0,1759.0,1813.0,1603.0,1747.0,1752.0,1753.0,1745.0,84.1761474609375,-16.936298370361328,-68.91609191894531,Left
2053.050048828125,91816,1,1725.0,1753.0,1752.0,1723.0,1751.0,1755.0,1757.0,1733.0,84.1761474609375,-16.936298370361328,-68.91609191894531,Left
2055.050048828125,91816,1,1745.0,1756.0,1703.0,1758.0,1759.0,1753.0,1763.0,1741.0,84.1761474609375,-16.936298370361328,-68.91609191894531,Left
2057.050048828125,91816,1,1783.0,1755.0,1683.0,1754.0,1756.0,1755.0,1767.0,1741.0,84.1761474609375,-16.936298370361328,-68.91609191894531,Left
2059.050048828125,91816,1,1807.0,1758.0,1750.0,1817.0,1756.0,1752.0,1765.0,1753.0,84.1761474609375,-16.936298370361328,-68.91609191894531,Left
2064.29296875,91817,1,1805.0,1757.0,1779.0,1815.0,1756.0,1752.0,1765.0,1755.0,84.1761474609375,-16.936298370361328,-68.91609191894531,Left
2066.29296875,91817,1,1789.0,1755.0,1763.0,1788.0,1755.0,1753.0,1763.0,1751.0,84.1761474609375,-16.936298370361328,-68.91609191894531,Left
2068.29296875,91817,1,1771.0,1757.0,1755.0,1844.0,1747.0,1753.0,1768.0,1749.0,84.1761474609375,-16.936298370361328,-68.91609191894531,Left
2070.29296875,91817,1,1742.0,1756.0,1725.0,1801.0,1756.0,1747.0,1767.0,1753.0,84.1761474609375,-16.936298370361328,-68.91609191894531,Left
2072.29296875,91817,1,1711.0,1759.0,1725.0,1827.0,1753.0,1754.0,1767.0,1755.0,84.1761474609375,-16.936298370361328,-68.91609191894531,Left
2070.791015625,91818,1,1710.0,1755.0,1784.0,1692.0,1751.0,1743.0,1763.0,1748.0,84.1761474609375,-16.936298370361328,-68.91609191894531,Left
2072.791015625,91818,1,1717.0,1756.0,1822.0,1607.0,1759.0,1748.0,1755.0,1750.0,84.1761474609375,-16.936298370361328,-68.91609191894531,Left
2074.791015625,91818,1,1751.0,1759.0,1815.0,1735.0,1753.0,1751.0,1764.0,1753.0,84.1761474609375,-16.936298370361328,-68.91609191894531,Left
2076.791015625,91818,1,1785.0,1757.0,1791.0,1797.0,1755.0,1751.0,1767.0,1741.0,84.1761474609375,-16.936298370361328,-68.91609191894531,Left
2078.791015625,91818,1,1811.0,1754.0,1721.0,1807.0,1753.0,1755.0,1767.0,1746.0,84.1761474609375,-16.936298370361328,-68.91609191894531,Left
2079.5048828125,91819,1,1803.0,1764.0,1725.0,1875.0,1756.0,1754.0,1765.0,1747.0,84.1761474609375,-16.936298370361328,-68.91609191894531,Left
2081.5048828125,91819,1,1800.0,1755.0,1743.0,1806.0,1747.0,1755.0,1755.0,1750.0,84.1761474609375,-16.936298370361328,-68.91609191894531,Left
2083.5048828125,91819,1,1767.0,1757.0,1737.0,1805.0,1755.0,1752.0,1763.0,1751.0,84.1761474609375,-16.936298370361328,-68.91609191894531,Left
2085.5048828125,91819,1,1745.0,1758.0,1743.0,1759.0,1756.0,1752.0,1763.0,1771.0,84.1761474609375,-16.936298370361328,-68.91609191894531,Left
2087.5048828125,91819,1,1723.0,1757.0,1749.0,1727.0,1752.0,1751.0,1765.0,1765.0,84.1761474609375,-16.936298370361328,-68.91609191894531,Left
2090.96875,91820,1,1701.0,1745.0,1781.0,1715.0,1748.0,1753.0,1763.0,1749.0,84.1761474609375,-16.936298370361328,-68.91609191894531,Left
2092.96875,91820,1,1720.0,1751.0,1810.0,1689.0,1748.0,1746.0,1753.0,1739.0,84.1761474609375,-16.936298370361328,-68.91609191894531,Left
2094.96875,91820,1,1748.0,1758.0,1739.0,1725.0,1745.0,1754.0,1754.0,1728.0,84.1761474609375,-16.936298370361328,-68.91609191894531,Left
2096.96875,91820,1,1783.0,1757.0,1757.0,1741.0,1748.0,1753.0,1763.0,1750.0,84.1761474609375,-16.936298370361328,-68.91609191894531,Left
2098.96875,91820,1,1799.0,1759.0,1758.0,1691.0,1741.0,1755.0,1758.0,1743.0,84.1761474609375,-16.936298370361328,-68.91609191894531,Left
2099.823974609375,91821,1,1806.0,1753.0,1757.0,1757.0,1751.0,1751.0,1753.0,1755.0,84.1761474609375,-16.936298370361328,-68.91609191894531,Left
2101.823974609375,91821,1,1800.0,1757.0,1748.0,1803.0,1757.0,1755.0,1765.0,1759.0,84.1761474609375,-16.936298370361328,-68.91609191894531,Left
2103.823974609375,91821,1,1775.0,1756.0,1759.0,1748.0,1758.0,1753.0,1767.0,1763.0,84.1761474609375,-16.936298370361328,-68.91609191894531,Left
2105.823974609375,91821,1,1750.0,1755.0,1771.0,1847.0,1749.0,1755.0,1756.0,1757.0,84.1761474609375,-16.936298370361328,-68.91609191894531,Left
2107.823974609375,91821,1,1724.0,1755.0,1741.0,1748.0,1743.0,1753.0,1754.0,1749.0,84.1761474609375,-16.936298370361328,-68.91609191894531,Left
2109.822998046875,91822,1,1708.0,1751.0,1740.0,1797.0,1754.0,1753.0,1765.0,1749.0,84.14844512939453,-16.876291275024414,-69.03157806396484,Left
2111.822998046875,91822,1,1720.0,1759.0,1741.0,1821.0,1757.0,1747.0,1764.0,1743.0,84.14844512939453,-16.876291275024414,-69.03157806396484,Left
2113.822998046875,91822,1,1750.0,1756.0,1775.0,1747.0,1752.0,1753.0,1763.0,1749.0,84.14844512939453,-16.876291275024414,-69.03157806396484,Left
2115.822998046875,91822,1,1779.0,1755.0,1811.0,1650.0,1755.0,1751.0,1765.0,1766.0,84.14844512939453,-16.876291275024414,-69.03157806396484,Left
2117.822998046875,91822,1,1804.0,1763.0,1823.0,1679.0,1741.0,1755.0,1765.0,1739.0,84.14844512939453,-16.876291275024414,-69.03157806396484,Left
2121.157958984375,91823,1,1813.0,1757.0,1757.0,1754.0,1747.0,1749.0,1765.0,1743.0,84.14844512939453,-16.876291275024414,-69.03157806396484,Left
2123.157958984375,91823,1,1790.0,1758.0,1763.0,1711.0,1763.0,1751.0,1756.0,1756.0,84.14844512939453,-16.876291275024414,-69.03157806396484,Left
2125.157958984375,91823,1,1779.0,1757.0,1701.0,1673.0,1756.0,1755.0,1763.0,1749.0,84.14844512939453,-16.876291275024414,-69.03157806396484,Left
2127.157958984375,91823,1,1745.0,1757.0,1745.0,1590.0,1745.0,1755.0,1765.0,1759.0,84.14844512939453,-16.876291275024414,-69.03157806396484,Left
2129.157958984375,91823,1,1720.0,1759.0,1759.0,1706.0,1752.0,1748.0,1767.0,1727.0,84.14844512939453,-16.876291275024414,-69.03157806396484,Left
2129.568115234375,91824,1,1700.0,1759.0,1719.0,1756.0,1749.0,1754.0,1755.0,1754.0,84.14844512939453,-16.876291275024414,-69.03157806396484,Left
2131.568115234375,91824,1,1719.0,1759.0,1716.0,1767.0,1755.0,1753.0,1763.0,1771.0,84.14844512939453,-16.876291275024414,-69.03157806396484,Left
2133.568115234375,91824,1,1743.0,1759.0,1787.0,1753.0,1747.0,1755.0,1767.0,1771.0,84.14844512939453,-16.876291275024414,-69.03157806396484,Left
2135.568115234375,91824,1,1775.0,1759.0,1789.0,1743.0,1753.0,1753.0,1756.0,1755.0,84.14844512939453,-16.876291275024414,-69.03157806396484,Left
2137.568115234375,91824,1,1805.0,1759.0,1739.0,1784.0,1754.0,1753.0,1765.0,1747.0,84.14844512939453,-16.876291275024414,-69.03157806396484,Left
2140.55712890625,91825,1,1821.0,1763.0,1741.0,1775.0,1749.0,1747.0,1765.0,1751.0,84.14844512939453,-16.876291275024414,-69.03157806396484,Left
2142.55712890625,91825,1,1801.0,1749.0,1801.0,1815.0,1751.0,1752.0,1763.0,1742.0,84.14844512939453,-16.876291275024414,-69.03157806396484,Left
2144.55712890625,91825,1,1779.0,1749.0,1767.0,1765.0,1748.0,1747.0,1762.0,1752.0,84.14844512939453,-16.876291275024414,-69.03157806396484,Left
2146.55712890625,91825,1,1741.0,1753.0,1757.0,1828.0,1755.0,1751.0,1767.0,1743.0,84.14844512939453,-16.876291275024414,-69.03157806396484,Left
2148.55712890625,91825,1,1717.0,1749.0,1752.0,1845.0,1753.0,1755.0,1766.0,1753.0,84.14844512939453,-16.876291275024414,-69.03157806396484,Left
2149.166748046875,91826,1,1705.0,1753.0,1743.0,1831.0,1754.0,1743.0,1755.0,1749.0,84.14844512939453,-16.876291275024414,-69.03157806396484,Left
2151.166748046875,91826,1,1717.0,1754.0,1758.0,1785.0,1756.0,1750.0,1765.0,1751.0,84.14844512939453,-16.876291275024414,-69.03157806396484,Left
2153.166748046875,91826,1,1741.0,1752.0,1771.0,1677.0,1757.0,1755.0,1755.0,1741.0,84.14844512939453,-16.876291275024414,-69.03157806396484,Left
2155.166748046875,91826,1,1772.0,1755.0,1776.0,1675.0,1753.0,1755.0,1761.0,1750.0,84.14844512939453,-16.876291275024414,-69.03157806396484,Left
2157.166748046875,91826,1,1803.0,1759.0,1765.0,1755.0,1751.0,1751.0,1766.0,1756.0,84.14844512939453,-16.876291275024414,-69.03157806396484,Left
2159.31396484375,91827,1,1817.0,1755.0,1767.0,1807.0,1756.0,1753.0,1762.0,1763.0,84.14844512939453,-16.876291275024414,-69.03157806396484,Left
2161.31396484375,91827,1,1807.0,1750.0,1754.0,1817.0,1753.0,1751.0,1755.0,1739.0,84.14844512939453,-16.876291275024414,-69.03157806396484,Left
2163.31396484375,91827,1,1785.0,1758.0,1748.0,1783.0,1745.0,1755.0,1767.0,1751.0,84.14844512939453,-16.876291275024414,-69.03157806396484,Left
2165.31396484375,91827,1,1753.0,1761.0,1755.0,1789.0,1753.0,1755.0,1756.0,1749.0,84.14844512939453,-16.876291275024414,-69.03157806396484,Left
2167.31396484375,91827,1,1721.0,1757.0,1759.0,1833.0,1756.0,1753.0,1764.0,1754.0,84.14844512939453,-16.876291275024414,-69.03157806396484,Left
2170.471923828125,91828,1,1710.0,1758.0,1757.0,1885.0,1755.0,1752.0,1757.0,1755.0,84.14844512939453,-16.876291275024414,-69.03157806396484,Left
2172.471923828125,91828,1,1716.0,1762.0,1762.0,1833.0,1749.0,1753.0,1755.0,1749.0,84.14844512939453,-16.876291275024414,-69.03157806396484,Left
2174.471923828125,91828,1,1741.0,1757.0,1750.0,1735.0,1753.0,1749.0,1758.0,1735.0,84.19464874267578,-16.854206085205078,-69.13803100585938,Left
2176.471923828125,91828,1,1775.0,1759.0,1755.0,1683.0,1746.0,1754.0,1765.0,1737.0,84.19464874267578,-16.854206085205078,-69.13803100585938,Left
2178.471923828125,91828,1,1801.0,1750.0,1741.0,1699.0,1753.0,1747.0,1753.0,1755.0,84.19464874267578,-16.854206085205078,-69.13803100585938,Left
2180.841064453125,91829,1,1816.0,1754.0,1783.0,1651.0,1739.0,1749.0,1764.0,1749.0,84.19464874267578,-16.854206085205078,-69.13803100585938,Left
2182.841064453125,91829,1,1807.0,1756.0,1757.0,1611.0,1755.0,1754.0,1765.0,1749.0,84.19464874267578,-16.854206085205078,-69.13803100585938,Left
2184.841064453125,91829,1,1783.0,1761.0,1775.0,1780.0,1755.0,1746.0,1765.0,1747.0,84.19464874267578,-16.854206085205078,-69.13803100585938,Left
2186.841064453125,91829,1,1752.0,1758.0,1783.0,1735.0,1755.0,1745.0,1757.0,1763.0,84.19464874267578,-16.854206085205078,-69.13803100585938,Left
2188.841064453125,91829,1,1727.0,1759.0,1789.0,1813.0,1754.0,1753.0,1765.0,1758.0,84.19464874267578,-16.854206085205078,-69.13803100585938,Left
2189.594970703125,91830,1,1699.0,1753.0,1781.0,1765.0,1754.0,1743.0,1757.0,1749.0,84.19464874267578,-16.854206085205078,-69.13803100585938,Left
2191.594970703125,91830,1,1715.0,1756.0,1727.0,1740.0,1752.0,1741.0,1767.0,1740.0,84.19464874267578,-16.854206085205078,-69.13803100585938,Left
2193.594970703125,91830,1,1737.0,1761.0,1797.0,1727.0,1751.0,1754.0,1763.0,1739.0,84.19464874267578,-16.854206085205078,-69.13803100585938,Left
2195.594970703125,91830,1,1768.0,1762.0,1711.0,1767.0,1749.0,1755.0,1765.0,1722.0,84.19464874267578,-16.854206085205078,-69.13803100585938,Left
2197.594970703125,91830,1,1800.0,1757.0,1699.0,1781.0,1749.0,1752.0,1763.0,1752.0,84.19464874267578,-16.854206085205078,-69.13803100585938,Left
2202.0458984375,91831,1,1811.0,1749.0,1786.0,1781.0,1749.0,1753.0,1755.0,1751.0,84.19464874267578,-16.854206085205078,-69.13803100585938,Left
2204.0458984375,91831,1,1809.0,1758.0,1799.0,1788.0,1751.0,1750.0,1762.0,1749.0,84.19464874267578,-16.854206085205078,-69.13803100585938,Left
2206.0458984375,91831,1,1788.0,1755.0,1768.0,1799.0,1755.0,1746.0,1763.0,1719.0,84.19464874267578,-16.854206085205078,-69.13803100585938,Left
2208.0458984375,91831,1,1757.0,1759.0,1747.0,1819.0,1757.0,1754.0,1764.0,1765.0,84.19464874267578,-16.854206085205078,-69.13803100585938,Left
2210.0458984375,91831,1,1723.0,1757.0,1751.0,1812.0,1755.0,1753.0,1758.0,1781.0,84.19464874267578,-16.854206085205078,-69.13803100585938,Left
2210.241943359375,91832,1,1695.0,1751.0,1743.0,1899.0,1751.0,1753.0,1751.0,1757.0,84.19464874267578,-16.854206085205078,-69.13803100585938,Left
2212.241943359375,91832,1,1708.0,1757.0,1781.0,1769.0,1753.0,1753.0,1757.0,1755.0,84.19464874267578,-16.854206085205078,-69.13803100585938,Left
2214.241943359375,91832,1,1735.0,1756.0,1765.0,1699.0,1752.0,1753.0,1767.0,1735.0,84.19464874267578,-16.854206085205078,-69.13803100585938,Left
2216.241943359375,91832,1,1768.0,1758.0,1759.0,1770.0,1753.0,1755.0,1762.0,1749.0,84.19464874267578,-16.854206085205078,-69.13803100585938,Left
2218.241943359375,91832,1,1801.0,1759.0,1735.0,1763.0,1757.0,1747.0,1753.0,1749.0,84.19464874267578,-16.854206085205078,-69.13803100585938,Left
2221.02490234375,91833,1,1804.0,1751.0,1773.0,1699.0,1755.0,1755.0,1764.0,1755.0,84.19464874267578,-16.854206085205078,-69.13803100585938,Left
2223.02490234375,91833,1,1807.0,1757.0,1771.0,1703.0,1757.0,1753.0,1765.0,1747.0,84.19464874267578,-16.854206085205078,-69.13803100585938,Left
2225.02490234375,91833,1,1788.0,1748.0,1737.0,1832.0,1752.0,1752.0,1765.0,1747.0,84.19464874267578,-16.854206085205078,-69.13803100585938,Left
2227.02490234375,91833,1,1758.0,1757.0,1763.0,1837.0,1757.0,1754.0,1755.0,1765.0,84.19464874267578,-16.854206085205078,-69.13803100585938,Left
2229.02490234375,91833,1,1735.0,1759.0,1811.0,1823.0,1752.0,1754.0,1763.0,1759.0,84.19464874267578,-16.854206085205078,-69.13803100585938,Left
2230.98291015625,91834,1,1709.0,1761.0,1803.0,1771.0,1752.0,1755.0,1758.0,1743.0,84.19464874267578,-16.854206085205078,-69.13803100585938,Left
2232.98291015625,91834,1,1706.0,1757.0,1775.0,1643.0,1755.0,1753.0,1765.0,1739.0,84.19464874267578,-16.854206085205078,-69.13803100585938,Left
2234.98291015625,91834,1,1726.0,1757.0,1659.0,1674.0,1749.0,1754.0,1763.0,1750.0,84.19464874267578,-16.854206085205078,-69.13803100585938,Left
2236.98291015625,91834,1,1768.0,1755.0,1756.0,1638.0,1752.0,1747.0,1765.0,1752.0,84.19464874267578,-16.854206085205078,-69.13803100585938,Left
2238.98291015625,91834,1,1787.0,1757.0,1739.0,1637.0,1746.0,1753.0,1765.0,1737.0,84.36946105957031,-16.864545822143555,-69.32585144042969,Left
2240.68310546875,91835,1,1803.0,1763.0,1782.0,1512.0,1752.0,1738.0,1757.0,1747.0,84.36946105957031,-16.864545822143555,-69.32585144042969,Left
2242.68310546875,91835,1,1806.0,1755.0,1775.0,1592.0,1755.0,1755.0,1765.0,1753.0,84.36946105957031,-16.864545822143555,-69.32585144042969,Left
2244.68310546875,91835,1,1781.0,1757.0,1767.0,1673.0,1755.0,1755.0,1767.0,1756.0,84.36946105957031,-16.864545822143555,-69.32585144042969,Left
2246.68310546875,91835,1,1759.0,1757.0,1797.0,1692.0,1756.0,1755.0,1756.0,1750.0,84.36946105957031,-16.864545822143555,-69.32585144042969,Left
2248.68310546875,91835,1,1725.0,1758.0,1745.0,1674.0,1755.0,1743.0,1767.0,1751.0,84.36946105957031,-16.864545822143555,-69.32585144042969,Left
2249.324951171875,91836,1,1707.0,1755.0,1727.0,1735.0,1752.0,1749.0,1758.0,1755.0,84.36946105957031,-16.864545822143555,-69.32585144042969,Left
2251.324951171875,91836,1,1709.0,1755.0,1712.0,1701.0,1754.0,1755.0,1759.0,1737.0,84.36946105957031,-16.864545822143555,-69.32585144042969,Left
2253.324951171875,91836,1,1727.0,1755.0,1757.0,1811.0,1753.0,1752.0,1755.0,1750.0,84.36946105957031,-16.864545822143555,-69.32585144042969,Left
2255.324951171875,91836,1,1767.0,1751.0,1700.0,1789.0,1753.0,1755.0,1763.0,1737.0,84.36946105957031,-16.864545822143555,-69.32585144042969,Left
2257.324951171875,91836,1,1797.0,1756.0,1810.0,1829.0,1752.0,1753.0,1759.0,1752.0,84.36946105957031,-16.864545822143555,-69.32585144042969,Left
2259.183837890625,91837,1,1792.0,1756.0,1787.0,1735.0,1753.0,1751.0,1765.0,1759.0,84.36946105957031,-16.864545822143555,-69.32585144042969,Left
2261.183837890625,91837,1,1805.0,1749.0,1765.0,1709.0,1755.0,1749.0,1762.0,1759.0,84.36946105957031,-16.864545822143555,-69.32585144042969,Left
2263.183837890625,91837,1,1789.0,1759.0,1775.0,1863.0,1749.0,1751.0,1765.0,1743.0,84.36946105957031,-16.864545822143555,-69.32585144042969,Left
2265.183837890625,91837,1,1763.0,1753.0,1765.0,1907.0,1754.0,1752.0,1754.0,1749.0,84.36946105957031,-16.864545822143555,-69.32585144042969,Left
2267.183837890625,91837,1,1735.0,1750.0,1723.0,1865.0,1755.0,1743.0,1765.0,1757.0,84.36946105957031,-16.864545822143555,-69.32585144042969,Left
2269.4111328125,91838,1,1715.0,1753.0,1711.0,1773.0,1749.0,1752.0,1765.0,1741.0,84.36946105957031,-16.864545822143555,-69.32585144042969,Left
2271.4111328125,91838,1,1711.0,1755.0,1734.0,1772.0,1752.0,1755.0,1767.0,1748.0,84.36946105957031,-16.864545822143555,-69.32585144042969,Left
2273.4111328125,91838,1,1733.0,1755.0,1786.0,1753.0,1745.0,1751.0,1763.0,1757.0,84.36946105957031,-16.864545822143555,-69.32585144042969,Left
2275.4111328125,91838,1,1755.0,1751.0,1790.0,1734.0,1755.0,1751.0,1765.0,1741.0,84.36946105957031,-16.864545822143555,-69.32585144042969,Left
2277.4111328125,91838,1,1791.0,1756.0,1775.0,1709.0,1757.0,1753.0,1755.0,1751.0,84.36946105957031,-16.864545822143555,-69.32585144042969,Left
2284.453857421875,91839,1,1807.0,1749.0,1751.0,1703.0,1755.0,1755.0,1765.0,1746.0,84.36946105957031,-16.864545822143555,-69.32585144042969,Left
2286.453857421875,91839,1,1803.0,1755.0,1757.0,1843.0,1759.0,1753.0,1763.0,1763.0,84.36946105957031,-16.864545822143555,-69.32585144042969,Left
2288.453857421875,91839,1,1786.0,1755.0,1762.0,1853.0,1755.0,1753.0,1757.0,1741.0,84.36946105957031,-16.864545822143555,-69.32585144042969,Left
2290.453857421875,91839,1,1757.0,1751.0,1741.0,1821.0,1755.0,1747.0,1764.0,1754.0,84.36946105957031,-16.864545822143555,-69.32585144042969,Left
2292.453857421875,91839,1,1739.0,1754.0,1755.0,1816.0,1751.0,1751.0,1765.0,1721.0,84.36946105957031,-16.864545822143555,-69.32585144042969,Left
2289.35595703125,91840,1,1711.0,1755.0,1773.0,1823.0,1756.0,1752.0,1767.0,1758.0,84.36946105957031,-16.864545822143555,-69.32585144042969,Left
2291.35595703125,91840,1,1707.0,1756.0,1803.0,1751.0,1754.0,1753.0,1754.0,1775.0,84.36946105957031,-16.864545822143555,-69.32585144042969,Left
2293.35595703125,91840,1,1721.0,1758.0,1823.0,1723.0,1751.0,1752.0,1755.0,1759.0,84.36946105957031,-16.864545822143555,-69.32585144042969,Left
2295.35595703125,91840,1,1761.0,1750.0,1787.0,1805.0,1755.0,1743.0,1764.0,1755.0,84.36946105957031,-16.864545822143555,-69.32585144042969,Left
2297.35595703125,91840,1,1789.0,1758.0,1705.0,1815.0,1755.0,1751.0,1763.0,1751.0,84.36946105957031,-16.864545822143555,-69.32585144042969,Left
2300.87890625,91841,1,1805.0,1752.0,1719.0,1752.0,1743.0,1752.0,1767.0,1739.0,84.36946105957031,-16.864545822143555,-69.32585144042969,Left
2302.87890625,91841,1,1813.0,1759.0,1661.0,1845.0,1754.0,1754.0,1761.0,1739.0,84.36946105957031,-16.864545822143555,-69.32585144042969,Left
2304.87890625,91841,1,1798.0,1758.0,1709.0,1817.0,1755.0,1755.0,1757.0,1737.0,84.48379516601562,-16.851547241210938,-69.4890365600586,Left
2306.87890625,91841,1,1767.0,1753.0,1780.0,1867.0,1747.0,1755.0,1765.0,1753.0,84.48379516601562,-16.851547241210938,-69.4890365600586,Left
2308.87890625,91841,1,1740.0,1756.0,1799.0,1911.0,1752.0,1755.0,1767.0,1765.0,84.48379516601562,-16.851547241210938,-69.4890365600586,Left
2309.913818359375,91842,1,1702.0,1763.0,1785.0,1855.0,1750.0,1749.0,1759.0,1760.0,84.48379516601562,-16.851547241210938,-69.4890365600586,Left
2311.913818359375,91842,1,1701.0,1758.0,1783.0,1812.0,1750.0,1743.0,1763.0,1763.0,84.48379516601562,-16.851547241210938,-69.4890365600586,Left
2313.913818359375,91842,1,1726.0,1757.0,1789.0,1739.0,1753.0,1751.0,1764.0,1757.0,84.48379516601562,-16.851547241210938,-69.4890365600586,Left
2315.913818359375,91842,1,1757.0,1750.0,1767.0,1737.0,1754.0,1747.0,1765.0,1756.0,84.48379516601562,-16.851547241210938,-69.4890365600586,Left
2317.913818359375,91842,1,1787.0,1751.0,1775.0,1727.0,1755.0,1755.0,1765.0,1733.0,84.48379516601562,-16.851547241210938,-69.4890365600586,Left
2318.994140625,91843,1,1801.0,1760.0,1714.0,1703.0,1755.0,1752.0,1767.0,1719.0,84.48379516601562,-16.851547241210938,-69.4890365600586,Left
2320.994140625,91843,1,1813.0,1759.0,1762.0,1727.0,1747.0,1751.0,1765.0,1754.0,84.48379516601562,-16.851547241210938,-69.4890365600586,Left
2322.994140625,91843,1,1797.0,1755.0,1686.0,1641.0,1751.0,1753.0,1764.0,1751.0,84.48379516601562,-16.851547241210938,-69.4890365600586,Left
2324.994140625,91843,1,1767.0,1751.0,1724.0,1637.0,1752.0,1751.0,1763.0,1747.0,84.48379516601562,-16.851547241210938,-69.4890365600586,Left
2326.994140625,91843,1,1739.0,1757.0,1751.0,1741.0,1752.0,1747.0,1765.0,1753.0,84.48379516601562,-16.851547241210938,-69.4890365600586,Left
2329.61572265625,91844,1,1707.0,1764.0,1749.0,1786.0,1747.0,1753.0,1765.0,1753.0,84.48379516601562,-16.851547241210938,-69.4890365600586,Left
2331.61572265625,91844,1,1708.0,1758.0,1773.0,1747.0,1756.0,1753.0,1755.0,1755.0,84.48379516601562,-16.851547241210938,-69.4890365600586,Left
2333.61572265625,91844,1,1723.0,1756.0,1801.0,1789.0,1753.0,1751.0,1765.0,1757.0,84.48379516601562,-16.851547241210938,-69.4890365600586,Left
2335.61572265625,91844,1,1751.0,1759.0,1789.0,1759.0,1757.0,1743.0,1765.0,1749.0,84.48379516601562,-16.851547241210938,-69.4890365600586,Left
2337.61572265625,91844,1,1790.0,1759.0,1766.0,1749.0,1753.0,1753.0,1763.0,1755.0,84.48379516601562,-16.851547241210938,-69.4890365600586,Left
2339.182861328125,91845,1,1805.0,1763.0,1771.0,1691.0,1754.0,1755.0,1763.0,1752.0,84.48379516601562,-16.851547241210938,-69.4890365600586,Left
2341.182861328125,91845,1,1814.0,1759.0,1757.0,1641.0,1751.0,1753.0,1763.0,1755.0,84.48379516601562,-16.851547241210938,-69.4890365600586,Left
2343.182861328125,91845,1,1801.0,1750.0,1753.0,1643.0,1749.0,1752.0,1757.0,1752.0,84.48379516601562,-16.851547241210938,-69.4890365600586,Left
2345.182861328125,91845,1,1773.0,1757.0,1770.0,1818.0,1753.0,1751.0,1765.0,1750.0,84.48379516601562,-16.851547241210938,-69.4890365600586,Left
2347.182861328125,91845,1,1733.0,1759.0,1743.0,1805.0,1754.0,1747.0,1763.0,1752.0,84.48379516601562,-16.851547241210938,-69.4890365600586,Left
2349.703125,91846,1,1719.0,1752.0,1743.0,1829.0,1755.0,1747.0,1757.0,1757.0,84.48379516601562,-16.851547241210938,-69.4890365600586,Left
2351.703125,91846,1,1709.0,1758.0,1749.0,1757.0,1751.0,1756.0,1763.0,1757.0,84.48379516601562,-16.851547241210938,-69.4890365600586,Left
2353.703125,91846,1,1723.0,1758.0,1771.0,1734.0,1757.0,1751.0,1765.0,1755.0,84.48379516601562,-16.851547241210938,-69.4890365600586,Left
2355.703125,91846,1,1751.0,1757.0,1807.0,1641.0,1749.0,1745.0,1767.0,1739.0,84.48379516601562,-16.851547241210938,-69.4890365600586,Left
2357.703125,91846,1,1783.0,1757.0,1765.0,1789.0,1757.0,1752.0,1764.0,1753.0,84.48379516601562,-16.851547241210938,-69.4890365600586,Left
2361.901123046875,91847,1,1804.0,1751.0,1733.0,1785.0,1753.0,1754.0,1765.0,1748.0,84.48379516601562,-16.851547241210938,-69.4890365600586,Left
2363.901123046875,91847,1,1811.0,1749.0,1747.0,1755.0,1757.0,1752.0,1759.0,1749.0,84.48379516601562,-16.851547241210938,-69.4890365600586,Left
2365.901123046875,91847,1,1801.0,1757.0,1769.0,1716.0,1751.0,1755.0,1765.0,1745.0,84.48379516601562,-16.851547241210938,-69.4890365600586,Left
2367.901123046875,91847,1,1769.0,1758.0,1745.0,1677.0,1753.0,1753.0,1765.0,1719.0,84.48379516601562,-16.851547241210938,-69.4890365600586,Left
2369.901123046875,91847,1,1743.0,1758.0,1709.0,1752.0,1752.0,1755.0,1765.0,1762.0,84.56951904296875,-16.804424285888672,-69.61348724365234,Left
2371.324951171875,91848,1,1717.0,1754.0,1773.0,1765.0,1753.0,1741.0,1759.0,1783.0,84.56951904296875,-16.804424285888672,-69.61348724365234,Left
2373.324951171875,91848,1,1707.0,1751.0,1835.0,1823.0,1752.0,1751.0,1763.0,1767.0,84.56951904296875,-16.804424285888672,-69.61348724365234,Left
2375.324951171875,91848,1,1719.0,1755.0,1837.0,1789.0,1746.0,1753.0,1764.0,1743.0,84.56951904296875,-16.804424285888672,-69.61348724365234,Left
2377.324951171875,91848,1,1741.0,1758.0,1755.0,1767.0,1754.0,1755.0,1754.0,1733.0,84.56951904296875,-16.804424285888672,-69.61348724365234,Left
2379.324951171875,91848,1,1783.0,1755.0,1703.0,1759.0,1755.0,1751.0,1763.0,1755.0,84.56951904296875,-16.804424285888672,-69.61348724365234,Left
2379.364013671875,91849,1,1805.0,1759.0,1737.0,1748.0,1753.0,1754.0,1765.0,1751.0,84.56951904296875,-16.804424285888672,-69.61348724365234,Left
2381.364013671875,91849,1,1817.0,1756.0,1753.0,1735.0,1752.0,1754.0,1763.0,1741.0,84.56951904296875,-16.804424285888672,-69.61348724365234,Left
2383.364013671875,91849,1,1799.0,1751.0,1763.0,1723.0,1755.0,1756.0,1763.0,1741.0,84.56951904296875,-16.804424285888672,-69.61348724365234,Left
2385.364013671875,91849,1,1768.0,1759.0,1768.0,1819.0,1755.0,1756.0,1763.0,1747.0,84.56951904296875,-16.804424285888672,-69.61348724365234,Left
2387.364013671875,91849,1,1747.0,1759.0,1734.0,1849.0,1753.0,1752.0,1766.0,1747.0,84.56951904296875,-16.804424285888672,-69.61348724365234,Left
2389.4521484375,91850,1,1717.0,1752.0,1751.0,1835.0,1747.0,1753.0,1767.0,1755.0,84.56951904296875,-16.804424285888672,-69.61348724365234,Left
2391.4521484375,91850,1,1707.0,1756.0,1801.0,1678.0,1755.0,1752.0,1765.0,1761.0,84.56951904296875,-16.804424285888672,-69.61348724365234,Left
2393.4521484375,91850,1,1720.0,1755.0,1787.0,1651.0,1755.0,1752.0,1763.0,1754.0,84.56951904296875,-16.804424285888672,-69.61348724365234,Left
2395.4521484375,91850,1,1748.0,1757.0,1766.0,1749.0,1753.0,1755.0,1765.0,1741.0,84.56951904296875,-16.804424285888672,-69.61348724365234,Left
2397.4521484375,91850,1,1781.0,1758.0,1753.0,1691.0,1747.0,1753.0,1764.0,1737.0,84.56951904296875,-16.804424285888672,-69.61348724365234,Left
2399.89111328125,91851,1,1806.0,1753.0,1717.0,1742.0,1753.0,1752.0,1765.0,1751.0,84.56951904296875,-16.804424285888672,-69.61348724365234,Left
2401.89111328125,91851,1,1811.0,1757.0,1805.0,1657.0,1755.0,1752.0,1765.0,1751.0,84.56951904296875,-16.804424285888672,-69.61348724365234,Left
2403.89111328125,91851,1,1805.0,1759.0,1813.0,1817.0,1755.0,1752.0,1764.0,1763.0,84.56951904296875,-16.804424285888672,-69.61348724365234,Left
2405.89111328125,91851,1,1778.0,1756.0,1784.0,1757.0,1753.0,1755.0,1767.0,1756.0,84.56951904296875,-16.804424285888672,-69.61348724365234,Left
2407.89111328125,91851,1,1747.0,1757.0,1673.0,1769.0,1753.0,1751.0,1767.0,1741.0,84.56951904296875,-16.804424285888672,-69.61348724365234,Left
2410.301025390625,91852,1,1720.0,1753.0,1753.0,1813.0,1755.0,1753.0,1765.0,1763.0,84.56951904296875,-16.804424285888672,-69.61348724365234,Left
2412.301025390625,91852,1,1703.0,1755.0,1811.0,1743.0,1755.0,1753.0,1765.0,1759.0,84.56951904296875,-16.804424285888672,-69.61348724365234,Left
2414.301025390625,91852,1,1717.0,1757.0,1741.0,1725.0,1747.0,1755.0,1756.0,1751.0,84.56951904296875,-16.804424285888672,-69.61348724365234,Left
2416.301025390625,91852,1,1741.0,1757.0,1734.0,1723.0,1754.0,1755.0,1766.0,1743.0,84.56951904296875,-16.804424285888672,-69.61348724365234,Left
2418.301025390625,91852,1,1779.0,1757.0,1690.0,1659.0,1745.0,1743.0,1765.0,1749.0,84.56951904296875,-16.804424285888672,-69.61348724365234,Left
2419.403076171875,91853,1,1801.0,1763.0,1773.0,1623.0,1746.0,1751.0,1764.0,1755.0,84.56951904296875,-16.804424285888672,-69.61348724365234,Left
2421.403076171875,91853,1,1817.0,1757.0,1797.0,1720.0,1753.0,1753.0,1759.0,1749.0,84.56951904296875,-16.804424285888672,-69.61348724365234,Left
2423.403076171875,91853,1,1805.0,1759.0,1773.0,1769.0,1747.0,1753.0,1766.0,1757.0,84.56951904296875,-16.804424285888672,-69.61348724365234,Left
2425.403076171875,91853,1,1783.0,1759.0,1779.0,1736.0,1755.0,1757.0,1756.0,1753.0,84.56951904296875,-16.804424285888672,-69.61348724365234,Left
2427.403076171875,91853,1,1751.0,1761.0,1753.0,1833.0,1755.0,1753.0,1755.0,1763.0,84.56951904296875,-16.804424285888672,-69.61348724365234,Left
2431.550048828125,91854,1,1717.0,1753.0,1756.0,1779.0,1757.0,1747.0,1767.0,1754.0,84.56951904296875,-16.804424285888672,-69.61348724365234,Left
2433.550048828125,91854,1,1707.0,1758.0,1750.0,1733.0,1756.0,1755.0,1767.0,1755.0,84.56951904296875,-16.804424285888672,-69.61348724365234,Left
2435.550048828125,91854,1,1717.0,1755.0,1767.0,1733.0,1759.0,1752.0,1753.0,1740.0,84.61217498779297,-16.7706356048584,-69.7087173461914,Left
2437.550048828125,91854,1,1741.0,1749.0,1762.0,1640.0,1749.0,1746.0,1765.0,1734.0,84.61217498779297,-16.7706356048584,-69.7087173461914,Left
2439.550048828125,91854,1,1782.0,1759.0,1757.0,1675.0,1758.0,1752.0,1762.0,1747.0,84.61217498779297,-16.7706356048584,-69.7087173461914,Left
2439.052978515625,91855,1,1801.0,1757.0,1778.0,1725.0,1748.0,1752.0,1767.0,1758.0,84.61217498779297,-16.7706356048584,-69.7087173461914,Left
2441.052978515625,91855,1,1815.0,1759.0,1813.0,1707.0,1740.0,1751.0,1765.0,1755.0,84.61217498779297,-16.7706356048584,-69.7087173461914,Left
2443.052978515625,91855,1,1806.0,1759.0,1747.0,1639.0,1756.0,1751.0,1765.0,1753.0,84.61217498779297,-16.7706356048584,-69.7087173461914,Left
2445.052978515625,91855,1,1785.0,1749.0,1742.0,1655.0,1754.0,1755.0,1767.0,1755.0,84.61217498779297,-16.7706356048584,-69.7087173461914,Left
2447.052978515625,91855,1,1753.0,1750.0,1639.0,1883.0,1755.0,1747.0,1759.0,1743.0,84.61217498779297,-16.7706356048584,-69.7087173461914,Left
2450.2919921875,91856,1,1720.0,1753.0,1803.0,1822.0,1757.0,1751.0,1763.0,1753.0,84.61217498779297,-16.7706356048584,-69.7087173461914,Left
2452.2919921875,91856,1,1709.0,1755.0,1724.0,1874.0,1757.0,1753.0,1763.0,1758.0,84.61217498779297,-16.7706356048584,-69.7087173461914,Left
2454.2919921875,91856,1,1717.0,1751.0,1783.0,1815.0,1751.0,1749.0,1755.0,1762.0,84.61217498779297,-16.7706356048584,-69.7087173461914,Left
2456.2919921875,91856,1,1738.0,1751.0,1775.0,1752.0,1748.0,1752.0,1764.0,1727.0,84.61217498779297,-16.7706356048584,-69.7087173461914,Left
2458.2919921875,91856,1,1775.0,1751.0,1753.0,1742.0,1755.0,1755.0,1766.0,1748.0,84.61217498779297,-16.7706356048584,-69.7087173461914,Left
2459.52294921875,91857,1,1798.0,1759.0,1752.0,1843.0,1752.0,1753.0,1765.0,1769.0,84.61217498779297,-16.7706356048584,-69.7087173461914,Left
2461.52294921875,91857,1,1815.0,1757.0,1789.0,1854.0,1757.0,1753.0,1763.0,1779.0,84.61217498779297,-16.7706356048584,-69.7087173461914,Left
2463.52294921875,91857,1,1797.0,1761.0,1751.0,1820.0,1750.0,1747.0,1757.0,1748.0,84.61217498779297,-16.7706356048584,-69.7087173461914,Left
2465.52294921875,91857,1,1775.0,1759.0,1802.0,1797.0,1753.0,1745.0,1753.0,1753.0,84.61217498779297,-16.7706356048584,-69.7087173461914,Left
2467.52294921875,91857,1,1753.0,1762.0,1785.0,1836.0,1753.0,1743.0,1767.0,1751.0,84.61217498779297,-16.7706356048584,-69.7087173461914,Left
2474.258056640625,91858,1,1723.0,1756.0,1711.0,1765.0,1747.0,1751.0,1767.0,1735.0,84.61217498779297,-16.7706356048584,-69.7087173461914,Left
2476.258056640625,91858,1,1704.0,1755.0,1705.0,1791.0,1747.0,1753.0,1765.0,1750.0,84.61217498779297,-16.7706356048584,-69.7087173461914,Left
2478.258056640625,91858,1,1707.0,1752.0,1832.0,1779.0,1755.0,1755.0,1753.0,1739.0,84.61217498779297,-16.7706356048584,-69.7087173461914,Left
2480.258056640625,91858,1,1737.0,1757.0,1725.0,1863.0,1750.0,1753.0,1765.0,1740.0,84.61217498779297,-16.7706356048584,-69.7087173461914,Left
2482.258056640625,91858,1,1765.0,1758.0,1723.0,1836.0,1753.0,1753.0,1763.0,1757.0,84.61217498779297,-16.7706356048584,-69.7087173461914,Left
2479.510986328125,91859,1,1802.0,1757.0,1689.0,1763.0,1752.0,1755.0,1755.0,1739.0,84.61217498779297,-16.7706356048584,-69.7087173461914,Left
2481.510986328125,91859,1,1815.0,1763.0,1791.0,1771.0,1757.0,1755.0,1765.0,1759.0,84.61217498779297,-16.7706356048584,-69.7087173461914,Left
2483.510986328125,91859,1,1803.0,1759.0,1742.0,1769.0,1753.0,1743.0,1755.0,1747.0,84.61217498779297,-16.7706356048584,-69.7087173461914,Left
2485.510986328125,91859,1,1783.0,1759.0,1781.0,1813.0,1755.0,1752.0,1766.0,1755.0,84.61217498779297,-16.7706356048584,-69.7087173461914,Left
2487.510986328125,91859,1,1755.0,1758.0,1807.0,1897.0,1749.0,1755.0,1767.0,1753.0,84.61217498779297,-16.7706356048584,-69.7087173461914,Left
2489.40087890625,91860,1,1719.0,1746.0,1770.0,1821.0,1752.0,1756.0,1765.0,1750.0,84.61217498779297,-16.7706356048584,-69.7087173461914,Left
2491.40087890625,91860,1,1707.0,1762.0,1765.0,1769.0,1757.0,1753.0,1762.0,1765.0,84.61217498779297,-16.7706356048584,-69.7087173461914,Left
2493.40087890625,91860,1,1708.0,1759.0,1765.0,1717.0,1754.0,1751.0,1764.0,1765.0,84.61217498779297,-16.7706356048584,-69.7087173461914,Left
2495.40087890625,91860,1,1725.0,1751.0,1654.0,1812.0,1752.0,1753.0,1765.0,1747.0,84.61217498779297,-16.7706356048584,-69.7087173461914,Left
2497.40087890625,91860,1,1767.0,1751.0,1837.0,1829.0,1749.0,1747.0,1758.0,1757.0,84.61217498779297,-16.7706356048584,-69.7087173461914,Left
2499.422119140625,91861,1,1798.0,1761.0,1835.0,1775.0,1753.0,1752.0,1755.0,1753.0,84.62823486328125,-16.782573699951172,-69.82571411132812,Left
2501.422119140625,91861,1,1811.0,1757.0,1783.0,1820.0,1743.0,1754.0,1763.0,1747.0,84.62823486328125,-16.782573699951172,-69.82571411132812,Left
2503.422119140625,91861,1,1799.0,1758.0,1695.0,1843.0,1751.0,1753.0,1764.0,1737.0,84.62823486328125,-16.782573699951172,-69.82571411132812,Left
2505.422119140625,91861,1,1789.0,1759.0,1688.0,1737.0,1753.0,1751.0,1755.0,1739.0,84.62823486328125,-16.782573699951172,-69.82571411132812,Left
2507.422119140625,91861,1,1759.0,1756.0,1787.0,1813.0,1757.0,1750.0,1763.0,1749.0,84.62823486328125,-16.782573699951172,-69.82571411132812,Left
2509.572021484375,91862,1,1723.0,1759.0,1788.0,1753.0,1753.0,1752.0,1762.0,1759.0,84.62823486328125,-16.782573699951172,-69.82571411132812,Left
2511.572021484375,91862,1,1703.0,1758.0,1752.0,1705.0,1755.0,1752.0,1755.0,1757.0,84.62823486328125,-16.782573699951172,-69.82571411132812,Left
2513.572021484375,91862,1,1708.0,1755.0,1699.0,1686.0,1753.0,1745.0,1767.0,1751.0,84.62823486328125,-16.782573699951172,-69.82571411132812,Left
2515.572021484375,91862,1,1733.0,1751.0,1764.0,1595.0,1759.0,1753.0,1766.0,1759.0,84.62823486328125,-16.782573699951172,-69.82571411132812,Left
2517.572021484375,91862,1,1771.0,1757.0,1773.0,1634.0,1755.0,1751.0,1765.0,1753.0,84.62823486328125,-16.782573699951172,-69.82571411132812,Left
2519.31201171875,91863,1,1798.0,1751.0,1799.0,1516.0,1753.0,1754.0,1765.0,1743.0,84.62823486328125,-16.782573699951172,-69.82571411132812,Left
2521.31201171875,91863,1,1805.0,1759.0,1764.0,1577.0,1753.0,1753.0,1755.0,1755.0,84.62823486328125,-16.782573699951172,-69.82571411132812,Left
2523.31201171875,91863,1,1803.0,1758.0,1752.0,1575.0,1753.0,1752.0,1765.0,1753.0,84.62823486328125,-16.782573699951172,-69.82571411132812,Left
2525.31201171875,91863,1,1789.0,1758.0,1772.0,1675.0,1757.0,1753.0,1766.0,1751.0,84.62823486328125,-16.782573699951172,-69.82571411132812,Left
2527.31201171875,91863,1,1753.0,1758.0,1767.0,1705.0,1755.0,1753.0,1756.0,1749.0,84.62823486328125,-16.782573699951172,-69.82571411132812,Left
2530.471923828125,91864,1,1721.0,1752.0,1753.0,1820.0,1757.0,1755.0,1755.0,1751.0,84.62823486328125,-16.782573699951172,-69.82571411132812,Left
2532.471923828125,91864,1,1711.0,1759.0,1753.0,1870.0,1743.0,1743.0,1766.0,1733.0,84.62823486328125,-16.782573699951172,-69.82571411132812,Left
2534.471923828125,91864,1,1706.0,1763.0,1763.0,1813.0,1756.0,1747.0,1763.0,1737.0,84.62823486328125,-16.782573699951172,-69.82571411132812,Left
2536.471923828125,91864,1,1727.0,1757.0,1756.0,1775.0,1757.0,1745.0,1753.0,1779.0,84.62823486328125,-16.782573699951172,-69.82571411132812,Left
2538.471923828125,91864,1,1767.0,1759.0,1764.0,1757.0,1752.0,1746.0,1767.0,1771.0,84.62823486328125,-16.782573699951172,-69.82571411132812,Left
2539.06201171875,91865,1,1799.0,1755.0,1747.0,1762.0,1755.0,1745.0,1755.0,1748.0,84.62823486328125,-16.782573699951172,-69.82571411132812,Left
2541.06201171875,91865,1,1804.0,1757.0,1702.0,1715.0,1747.0,1755.0,1758.0,1751.0,84.62823486328125,-16.782573699951172,-69.82571411132812,Left
2543.06201171875,91865,1,1810.0,1757.0,1781.0,1781.0,1747.0,1748.0,1765.0,1755.0,84.62823486328125,-16.782573699951172,-69.82571411132812,Left
2545.06201171875,91865,1,1783.0,1758.0,1805.0,1845.0,1748.0,1754.0,1766.0,1759.0,84.62823486328125,-16.782573699951172,-69.82571411132812,Left
2547.06201171875,91865,1,1763.0,1751.0,1821.0,1818.0,1759.0,1742.0,1765.0,1759.0,84.62823486328125,-16.782573699951172,-69.82571411132812,Left
2549.34619140625,91866,1,1737.0,1743.0,1797.0,1844.0,1753.0,1755.0,1767.0,1753.0,84.62823486328125,-16.782573699951172,-69.82571411132812,Left
2551.34619140625,91866,1,1715.0,1759.0,1782.0,1813.0,1747.0,1749.0,1763.0,1763.0,84.62823486328125,-16.782573699951172,-69.82571411132812,Left
2553.34619140625,91866,1,1705.0,1758.0,1757.0,1861.0,1747.0,1751.0,1765.0,1755.0,84.62823486328125,-16.782573699951172,-69.82571411132812,Left
2555.34619140625,91866,1,1721.0,1748.0,1660.0,1852.0,1753.0,1747.0,1764.0,1747.0,84.62823486328125,-16.782573699951172,-69.82571411132812,Left
2557.34619140625,91866,1,1770.0,1756.0,1751.0,1757.0,1753.0,1751.0,1765.0,1749.0,84.62823486328125,-16.782573699951172,-69.82571411132812,Left
2559.404052734375,91867,1,1796.0,1749.0,1620.0,1710.0,1753.0,1751.0,1759.0,1725.0,84.62823486328125,-16.782573699951172,-69.82571411132812,Left
2561.404052734375,91867,1,1805.0,1755.0,1790.0,1791.0,1754.0,1753.0,1765.0,1749.0,84.62823486328125,-16.782573699951172,-69.82571411132812,Left
2563.404052734375,91867,1,1804.0,1755.0,1804.0,1864.0,1747.0,1752.0,1766.0,1749.0,84.55592346191406,-16.763320922851562,-69.96195983886719,Left
2565.404052734375,91867,1,1797.0,1757.0,1770.0,1919.0,1752.0,1755.0,1763.0,1768.0,84.55592346191406,-16.763320922851562,-69.96195983886719,Left
2567.404052734375,91867,1,1765.0,1752.0,1765.0,1925.0,1753.0,1753.0,1767.0,1747.0,84.55592346191406,-16.763320922851562,-69.96195983886719,Left
2570.814208984375,91868,1,1727.0,1755.0,1763.0,1797.0,1753.0,1754.0,1763.0,1747.0,84.55592346191406,-16.763320922851562,-69.96195983886719,Left
2572.814208984375,91868,1,1708.0,1757.0,1692.0,1789.0,1749.0,1753.0,1763.0,1739.0,84.55592346191406,-16.763320922851562,-69.96195983886719,Left
2574.814208984375,91868,1,1715.0,1759.0,1765.0,1751.0,1755.0,1755.0,1763.0,1757.0,84.55592346191406,-16.763320922851562,-69.96195983886719,Left
2576.814208984375,91868,1,1724.0,1751.0,1763.0,1679.0,1749.0,1755.0,1765.0,1751.0,84.55592346191406,-16.763320922851562,-69.96195983886719,Left
2578.814208984375,91868,1,1767.0,1759.0,1783.0,1723.0,1752.0,1753.0,1767.0,1755.0,84.55592346191406,-16.763320922851562,-69.96195983886719,Left
2579.31005859375,91869,1,1791.0,1745.0,1791.0,1699.0,1747.0,1751.0,1756.0,1753.0,84.55592346191406,-16.763320922851562,-69.96195983886719,Left
2581.31005859375,91869,1,1811.0,1759.0,1689.0,1623.0,1751.0,1745.0,1767.0,1741.0,84.55592346191406,-16.763320922851562,-69.96195983886719,Left
2583.31005859375,91869,1,1803.0,1756.0,1779.0,1659.0,1751.0,1753.0,1763.0,1748.0,84.55592346191406,-16.763320922851562,-69.96195983886719,Left
2585.31005859375,91869,1,1797.0,1755.0,1831.0,1737.0,1755.0,1752.0,1755.0,1751.0,84.55592346191406,-16.763320922851562,-69.96195983886719,Left
2587.31005859375,91869,1,1765.0,1757.0,1787.0,1854.0,1757.0,1756.0,1767.0,1747.0,84.55592346191406,-16.763320922851562,-69.96195983886719,Left
2591.10693359375,91870,1,1733.0,1757.0,1763.0,1819.0,1751.0,1753.0,1756.0,1757.0,84.55592346191406,-16.763320922851562,-69.96195983886719,Left
2593.10693359375,91870,1,1715.0,1761.0,1727.0,1849.0,1751.0,1743.0,1765.0,1757.0,84.55592346191406,-16.763320922851562,-69.96195983886719,Left
2595.10693359375,91870,1,1711.0,1755.0,1693.0,1885.0,1755.0,1753.0,1764.0,1751.0,84.55592346191406,-16.763320922851562,-69.96195983886719,Left
2597.10693359375,91870,1,1725.0,1755.0,1747.0,1752.0,1752.0,1751.0,1766.0,1748.0,84.55592346191406,-16.763320922851562,-69.96195983886719,Left
2599.10693359375,91870,1,1762.0,1759.0,1799.0,1701.0,1752.0,1751.0,1763.0,1749.0,84.55592346191406,-16.763320922851562,-69.96195983886719,Left
2600.84521484375,91871,1,1786.0,1753.0,1778.0,1591.0,1747.0,1748.0,1763.0,1735.0,84.55592346191406,-16.763320922851562,-69.96195983886719,Left
2602.84521484375,91871,1,1807.0,1756.0,1767.0,1598.0,1743.0,1751.0,1753.0,1745.0,84.55592346191406,-16.763320922851562,-69.96195983886719,Left
2604.84521484375,91871,1,1811.0,1751.0,1743.0,1701.0,1749.0,1755.0,1763.0,1753.0,84.55592346191406,-16.763320922851562,-69.96195983886719,Left
2606.84521484375,91871,1,1799.0,1750.0,1740.0,1737.0,1752.0,1753.0,1765.0,1756.0,84.55592346191406,-16.763320922851562,-69.96195983886719,Left
2608.84521484375,91871,1,1768.0,1753.0,1769.0,1785.0,1756.0,1750.0,1763.0,1756.0,84.55592346191406,-16.763320922851562,-69.96195983886719,Left
2611.280029296875,91872,1,1735.0,1752.0,1779.0,1757.0,1753.0,1741.0,1758.0,1743.0,84.55592346191406,-16.763320922851562,-69.96195983886719,Left
2613.280029296875,91872,1,1715.0,1757.0,1751.0,1763.0,1753.0,1752.0,1763.0,1735.0,84.55592346191406,-16.763320922851562,-69.96195983886719,Left
2615.280029296875,91872,1,1709.0,1749.0,1823.0,1757.0,1759.0,1753.0,1763.0,1779.0,84.55592346191406,-16.763320922851562,-69.96195983886719,Left
2617.280029296875,91872,1,1721.0,1750.0,1785.0,1751.0,1755.0,1746.0,1762.0,1785.0,84.55592346191406,-16.763320922851562,-69.96195983886719,Left
2619.280029296875,91872,1,1759.0,1755.0,1707.0,1852.0,1748.0,1755.0,1763.0,1749.0,84.55592346191406,-16.763320922851562,-69.96195983886719,Left
2619.248779296875,91873,1,1788.0,1753.0,1705.0,1736.0,1748.0,1751.0,1759.0,1735.0,84.55592346191406,-16.763320922851562,-69.96195983886719,Left
2621.248779296875,91873,1,1811.0,1755.0,1789.0,1721.0,1753.0,1750.0,1762.0,1735.0,84.55592346191406,-16.763320922851562,-69.96195983886719,Left
2623.248779296875,91873,1,1811.0,1753.0,1703.0,1797.0,1756.0,1756.0,1764.0,1747.0,84.55592346191406,-16.763320922851562,-69.96195983886719,Left
2625.248779296875,91873,1,1799.0,1758.0,1755.0,1845.0,1755.0,1753.0,1756.0,1741.0,84.55592346191406,-16.763320922851562,-69.96195983886719,Left
2627.248779296875,91873,1,1771.0,1751.0,1790.0,1879.0,1751.0,1755.0,1767.0,1747.0,84.56378173828125,-16.784080505371094,-70.05928039550781,Left
2629.093017578125,91874,1,1720.0,1749.0,1703.0,1875.0,1759.0,1752.0,1765.0,1766.0,84.56378173828125,-16.784080505371094,-70.05928039550781,Left
2631.093017578125,91874,1,1718.0,1751.0,1784.0,1834.0,1756.0,1747.0,1765.0,1757.0,84.56378173828125,-16.784080505371094,-70.05928039550781,Left
2633.093017578125,91874,1,1707.0,1763.0,1863.0,1830.0,1750.0,1753.0,1765.0,1771.0,84.56378173828125,-16.784080505371094,-70.05928039550781,Left
2635.093017578125,91874,1,1721.0,1753.0,1783.0,1762.0,1746.0,1754.0,1755.0,1749.0,84.56378173828125,-16.784080505371094,-70.05928039550781,Left
2637.093017578125,91874,1,1747.0,1751.0,1701.0,1747.0,1741.0,1747.0,1763.0,1696.0,84.56378173828125,-16.784080505371094,-70.05928039550781,Left
2640.56201171875,91875,1,1781.0,1755.0,1765.0,1708.0,1751.0,1752.0,1755.0,1757.0,84.56378173828125,-16.784080505371094,-70.05928039550781,Left
2642.56201171875,91875,1,1804.0,1751.0,1815.0,1548.0,1749.0,1751.0,1759.0,1743.0,84.56378173828125,-16.784080505371094,-70.05928039550781,Left
2644.56201171875,91875,1,1813.0,1755.0,1701.0,1465.0,1757.0,1753.0,1763.0,1747.0,84.56378173828125,-16.784080505371094,-70.05928039550781,Left
2646.56201171875,91875,1,1797.0,1757.0,1721.0,1551.0,1753.0,1753.0,1767.0,1766.0,84.56378173828125,-16.784080505371094,-70.05928039550781,Left
2648.56201171875,91875,1,1771.0,1758.0,1777.0,1646.0,1747.0,1754.0,1765.0,1766.0,84.56378173828125,-16.784080505371094,-70.05928039550781,Left
2654.5478515625,91876,1,1739.0,1759.0,1783.0,1701.0,1748.0,1751.0,1753.0,1747.0,84.56378173828125,-16.784080505371094,-70.05928039550781,Left
2656.5478515625,91876,1,1717.0,1757.0,1773.0,1767.0,1757.0,1753.0,1765.0,1755.0,84.56378173828125,-16.784080505371094,-70.05928039550781,Left
2658.5478515625,91876,1,1705.0,1759.0,1803.0,1723.0,1745.0,1753.0,1764.0,1765.0,84.56378173828125,-16.784080505371094,-70.05928039550781,Left
2660.5478515625,91876,1,1721.0,1759.0,1813.0,1743.0,1758.0,1753.0,1766.0,1771.0,84.56378173828125,-16.784080505371094,-70.05928039550781,Left
2662.5478515625,91876,1,1745.0,1759.0,1753.0,1717.0,1755.0,1752.0,1765.0,1764.0,84.56378173828125,-16.784080505371094,-70.05928039550781,Left
2660.93701171875,91877,1,1783.0,1751.0,1763.0,1754.0,1743.0,1750.0,1759.0,1741.0,84.56378173828125,-16.784080505371094,-70.05928039550781,Left
2662.93701171875,91877,1,1805.0,1757.0,1693.0,1804.0,1753.0,1754.0,1763.0,1717.0,84.56378173828125,-16.784080505371094,-70.05928039550781,Left
2664.93701171875,91877,1,1805.0,1758.0,1739.0,1784.0,1747.0,1756.0,1767.0,1739.0,84.56378173828125,-16.784080505371094,-70.05928039550781,Left
2666.93701171875,91877,1,1789.0,1757.0,1653.0,1831.0,1755.0,1756.0,1755.0,1740.0,84.56378173828125,-16.784080505371094,-70.05928039550781,Left
2668.93701171875,91877,1,1772.0,1758.0,1786.0,1849.0,1757.0,1753.0,1763.0,1743.0,84.56378173828125,-16.784080505371094,-70.05928039550781,Left
2670.47509765625,91878,1,1735.0,1748.0,1799.0,1817.0,1755.0,1751.0,1766.0,1756.0,84.56378173828125,-16.784080505371094,-70.05928039550781,Left
2672.47509765625,91878,1,1719.0,1757.0,1801.0,1820.0,1756.0,1752.0,1767.0,1765.0,84.56378173828125,-16.784080505371094,-70.05928039550781,Left
2674.47509765625,91878,1,1710.0,1758.0,1741.0,1812.0,1765.0,1753.0,1767.0,1758.0,84.56378173828125,-16.784080505371094,-70.05928039550781,Left
2676.47509765625,91878,1,1720.0,1757.0,1685.0,1885.0,1739.0,1757.0,1767.0,1743.0,84.56378173828125,-16.784080505371094,-70.05928039550781,Left
2678.47509765625,91878,1,1751.0,1755.0,1788.0,1743.0,1754.0,1753.0,1764.0,1762.0,84.56378173828125,-16.784080505371094,-70.05928039550781,Left
2683.697021484375,91879,1,1775.0,1757.0,1779.0,1683.0,1750.0,1751.0,1751.0,1737.0,84.56378173828125,-16.784080505371094,-70.05928039550781,Left
2685.697021484375,91879,1,1805.0,1758.0,1625.0,1710.0,1755.0,1755.0,1755.0,1743.0,84.56378173828125,-16.784080505371094,-70.05928039550781,Left
2687.697021484375,91879,1,1814.0,1755.0,1813.0,1728.0,1756.0,1747.0,1767.0,1754.0,84.56378173828125,-16.784080505371094,-70.05928039550781,Left
2689.697021484375,91879,1,1803.0,1751.0,1831.0,1755.0,1751.0,1755.0,1765.0,1763.0,84.56378173828125,-16.784080505371094,-70.05928039550781,Left
2691.697021484375,91879,1,1775.0,1757.0,1755.0,1750.0,1754.0,1755.0,1763.0,1759.0,84.56378173828125,-16.784080505371094,-70.05928039550781,Left
2690.87109375,91880,1,1737.0,1758.0,1757.0,1820.0,1743.0,1751.0,1759.0,1749.0,84.56378173828125,-16.784080505371094,-70.05928039550781,Left
2692.87109375,91880,1,1720.0,1749.0,1779.0,1759.0,1742.0,1750.0,1766.0,1751.0,84.41580200195312,-16.747900009155273,-70.0572280883789,Left
2694.87109375,91880,1,1707.0,1757.0,1779.0,1727.0,1741.0,1746.0,1763.0,1736.0,84.41580200195312,-16.747900009155273,-70.0572280883789,Left
2696.87109375,91880,1,1717.0,1757.0,1643.0,1767.0,1747.0,1754.0,1755.0,1739.0,84.41580200195312,-16.747900009155273,-70.0572280883789,Left
2698.87109375,91880,1,1747.0,1756.0,1691.0,1788.0,1767.0,1755.0,1765.0,1756.0,84.41580200195312,-16.747900009155273,-70.0572280883789,Left
2701.214111328125,91881,1,1769.0,1751.0,1786.0,1775.0,1768.0,1748.0,1752.0,1735.0,84.41580200195312,-16.747900009155273,-70.0572280883789,Left
2703.214111328125,91881,1,1797.0,1757.0,1831.0,1721.0,1763.0,1752.0,1765.0,1724.0,84.41580200195312,-16.747900009155273,-70.0572280883789,Left
2705.214111328125,91881,1,1816.0,1757.0,1813.0,1718.0,1773.0,1745.0,1763.0,1770.0,84.41580200195312,-16.747900009155273,-70.0572280883789,Left
2707.214111328125,91881,1,1801.0,1757.0,1803.0,1753.0,1709.0,1751.0,1766.0,1765.0,84.41580200195312,-16.747900009155273,-70.0572280883789,Left
2709.214111328125,91881,1,1783.0,1757.0,1658.0,1875.0,1693.0,1754.0,1757.0,1749.0,84.41580200195312,-16.747900009155273,-70.0572280883789,Left
2711.675048828125,91882,1,1749.0,1748.0,1659.0,1881.0,1780.0,1756.0,1763.0,1740.0,84.41580200195312,-16.747900009155273,-70.0572280883789,Left
2713.675048828125,91882,1,1723.0,1757.0,1683.0,1851.0,1848.0,1751.0,1767.0,1765.0,84.41580200195312,-16.747900009155273,-70.0572280883789,Left
2715.675048828125,91882,1,1709.0,1752.0,1775.0,1801.0,1831.0,1755.0,1768.0,1740.0,84.41580200195312,-16.747900009155273,-70.0572280883789,Left
2717.675048828125,91882,1,1719.0,1762.0,1779.0,1763.0,1694.0,1753.0,1763.0,1752.0,84.41580200195312,-16.747900009155273,-70.0572280883789,Left
2719.675048828125,91882,1,1738.0,1758.0,1791.0,1700.0,1694.0,1754.0,1763.0,1755.0,84.41580200195312,-16.747900009155273,-70.0572280883789,Left
2719.13916015625,91883,1,1781.0,1755.0,1813.0,1773.0,1811.0,1743.0,1763.0,1781.0,84.41580200195312,-16.747900009155273,-70.0572280883789,Left
2721.13916015625,91883,1,1801.0,1757.0,1791.0,1787.0,1791.0,1751.0,1754.0,1765.0,84.41580200195312,-16.747900009155273,-70.0572280883789,Left
2723.13916015625,91883,1,1816.0,1757.0,1768.0,1815.0,1707.0,1752.0,1767.0,1751.0,84.41580200195312,-16.747900009155273,-70.0572280883789,Left
2725.13916015625,91883,1,1800.0,1757.0,1756.0,1787.0,1692.0,1756.0,1765.0,1747.0,84.41580200195312,-16.747900009155273,-70.0572280883789,Left
2727.13916015625,91883,1,1775.0,1757.0,1752.0,1865.0,1763.0,1754.0,1767.0,1749.0,84.41580200195312,-16.747900009155273,-70.0572280883789,Left
2729.216064453125,91884,1,1737.0,1749.0,1764.0,1952.0,1669.0,1747.0,1757.0,1727.0,84.41580200195312,-16.747900009155273,-70.0572280883789,Left
2731.216064453125,91884,1,1719.0,1751.0,1770.0,1945.0,1701.0,1752.0,1767.0,1736.0,84.41580200195312,-16.747900009155273,-70.0572280883789,Left
2733.216064453125,91884,1,1706.0,1756.0,1753.0,1860.0,1804.0,1752.0,1755.0,1757.0,84.41580200195312,-16.747900009155273,-70.0572280883789,Left
2735.216064453125,91884,1,1711.0,1758.0,1767.0,1725.0,1927.0,1752.0,1765.0,1784.0,84.41580200195312,-16.747900009155273,-70.0572280883789,Left
2737.216064453125,91884,1,1726.0,1757.0,1819.0,1725.0,1757.0,1753.0,1762.0,1765.0,84.41580200195312,-16.747900009155273,-70.0572280883789,Left
2739.5419921875,91885,1,1767.0,1757.0,1732.0,1529.0,1593.0,1743.0,1764.0,1737.0,84.41580200195312,-16.747900009155273,-70.0572280883789,Left
2741.5419921875,91885,1,1797.0,1761.0,1787.0,1661.0,1573.0,1753.0,1765.0,1755.0,84.41580200195312,-16.747900009155273,-70.0572280883789,Left
2743.5419921875,91885,1,1811.0,1755.0,1771.0,1673.0,1831.0,1753.0,1763.0,1752.0,84.41580200195312,-16.747900009155273,-70.0572280883789,Left
2745.5419921875,91885,1,1798.0,1751.0,1740.0,1677.0,1863.0,1743.0,1755.0,1749.0,84.41580200195312,-16.747900009155273,-70.0572280883789,Left
2747.5419921875,91885,1,1775.0,1758.0,1763.0,1749.0,1861.0,1753.0,1763.0,1773.0,84.41580200195312,-16.747900009155273,-70.0572280883789,Left
2750.690185546875,91886,1,1743.0,1764.0,1757.0,1712.0,1495.0,1747.0,1763.0,1743.0,84.41580200195312,-16.747900009155273,-70.0572280883789,Left
2752.690185546875,91886,1,1719.0,1753.0,1763.0,1657.0,1741.0,1748.0,1764.0,1737.0,84.41580200195312,-16.747900009155273,-70.0572280883789,Left
2754.690185546875,91886,1,1695.0,1750.0,1722.0,1662.0,1934.0,1752.0,1767.0,1736.0,84.41580200195312,-16.747900009155273,-70.0572280883789,Left
2756.690185546875,91886,1,1703.0,1753.0,1763.0,1627.0,2137.0,1751.0,1763.0,1763.0,84.41580200195312,-16.747900009155273,-70.0572280883789,Left
2758.690185546875,91886,1,1721.0,1757.0,1789.0,1711.0,1679.0,1753.0,1763.0,1766.0,83.6289291381836,-16.81696128845215,-69.56226348876953,Left
2760.756103515625,91887,1,1752.0,1759.0,1765.0,1629.0,1293.0,1749.0,1752.0,1741.0,83.6289291381836,-16.81696128845215,-69.56226348876953,Left
2762.756103515625,91887,1,1776.0,1757.0,1785.0,1699.0,1695.0,1752.0,1753.0,1768.0,83.6289291381836,-16.81696128845215,-69.56226348876953,Left
2764.756103515625,91887,1,1785.0,1755.0,1747.0,1715.0,1799.0,1753.0,1763.0,1753.0,83.6289291381836,-16.81696128845215,-69.56226348876953,Left
2766.756103515625,91887,1,1779.0,1757.0,1759.0,1867.0,1740.0,1754.0,1764.0,1753.0,83.6289291381836,-16.81696128845215,-69.56226348876953,Left
2768.756103515625,91887,1,1751.0,1763.0,1742.0,1868.0,1647.0,1754.0,1763.0,1737.0,83.6289291381836,-16.81696128845215,-69.56226348876953,Left
2769.427978515625,91888,1,1721.0,1764.0,1770.0,1903.0,1497.0,1753.0,1763.0,1755.0,83.6289291381836,-16.81696128845215,-69.56226348876953,Left
2771.427978515625,91888,1,1692.0,1749.0,1727.0,1753.0,1990.0,1753.0,1763.0,1707.0,83.6289291381836,-16.81696128845215,-69.56226348876953,Left
2773.427978515625,91888,1,1671.0,1759.0,1766.0,1637.0,2441.0,1740.0,1755.0,1765.0,83.6289291381836,-16.81696128845215,-69.56226348876953,Left
2775.427978515625,91888,1,1675.0,1759.0,1747.0,1567.0,2286.0,1750.0,1759.0,1747.0,83.6289291381836,-16.81696128845215,-69.56226348876953,Left
2777.427978515625,91888,1,1699.0,1757.0,1751.0,1651.0,1480.0,1751.0,1753.0,1733.0,83.6289291381836,-16.81696128845215,-69.56226348876953,Left
2790.589111328125,91889,1,1739.0,1772.0,1781.0,1661.0,1553.0,1753.0,1767.0,1767.0,83.6289291381836,-16.81696128845215,-69.56226348876953,Left
2792.589111328125,91889,1,1770.0,1757.0,1764.0,1622.0,935.0,1751.0,1758.0,1752.0,83.6289291381836,-16.81696128845215,-69.56226348876953,Left
2794.589111328125,91889,1,1785.0,1751.0,1768.0,1640.0,1420.0,1753.0,1765.0,1718.0,83.6289291381836,-16.81696128845215,-69.56226348876953,Left
2796.589111328125,91889,1,1781.0,1762.0,1766.0,1663.0,2041.0,1753.0,1763.0,1781.0,83.6289291381836,-16.81696128845215,-69.56226348876953,Left
2798.589111328125,91889,1,1763.0,1751.0,1775.0,1607.0,2271.0,1754.0,1765.0,1785.0,83.6289291381836,-16.81696128845215,-69.56226348876953,Left
2791.5009765625,91890,1,1723.0,1763.0,1740.0,1647.0,1823.0,1755.0,1766.0,1740.0,83.6289291381836,-16.81696128845215,-69.56226348876953,Left
2793.5009765625,91890,1,1705.0,1757.0,1749.0,1699.0,1625.0,1752.0,1764.0,1726.0,83.6289291381836,-16.81696128845215,-69.56226348876953,Left
2795.5009765625,91890,1,1688.0,1755.0,1750.0,1725.0,1896.0,1738.0,1763.0,1771.0,83.6289291381836,-16.81696128845215,-69.56226348876953,Left
2797.5009765625,91890,1,1691.0,1756.0,1741.0,1745.0,1833.0,1754.0,1766.0,1746.0,83.6289291381836,-16.81696128845215,-69.56226348876953,Left
2799.5009765625,91890,1,1711.0,1759.0,1803.0,1720.0,1337.0,1752.0,1765.0,1774.0,83.6289291381836,-16.81696128845215,-69.56226348876953,Left
2801.2470703125,91891,1,1752.0,1755.0,1803.0,1779.0,1299.0,1755.0,1763.0,1771.0,83.6289291381836,-16.81696128845215,-69.56226348876953,Left
2803.2470703125,91891,1,1781.0,1757.0,1783.0,1823.0,2269.0,1753.0,1766.0,1708.0,83.6289291381836,-16.81696128845215,-69.56226348876953,Left
2805.2470703125,91891,1,1799.0,1759.0,1758.0,1765.0,2733.0,1753.0,1765.0,1724.0,83.6289291381836,-16.81696128845215,-69.56226348876953,Left
2807.2470703125,91891,1,1799.0,1755.0,1699.0,1806.0,1480.0,1755.0,1765.0,1768.0,83.6289291381836,-16.81696128845215,-69.56226348876953,Left
2809.2470703125,91891,1,1781.0,1757.0,1753.0,1801.0,1818.0,1746.0,1756.0,1757.0,83.6289291381836,-16.81696128845215,-69.56226348876953,Left
2812.565185546875,91892,1,1745.0,1757.0,1754.0,1941.0,1593.0,1749.0,1758.0,1725.0,83.6289291381836,-16.81696128845215,-69.56226348876953,Left
2814.565185546875,91892,1,1724.0,1754.0,1707.0,1938.0,1491.0,1752.0,1756.0,1718.0,83.6289291381836,-16.81696128845215,-69.56226348876953,Left
2816.565185546875,91892,1,1700.0,1757.0,1772.0,1865.0,1336.0,1741.0,1766.0,1786.0,83.6289291381836,-16.81696128845215,-69.56226348876953,Left
2818.565185546875,91892,1,1709.0,1755.0,1738.0,1941.0,1661.0,1756.0,1763.0,1702.0,83.6289291381836,-16.81696128845215,-69.56226348876953,Left
2820.565185546875,91892,1,1735.0,1756.0,1783.0,1875.0,2359.0,1753.0,1753.0,1775.0,83.6289291381836,-16.81696128845215,-69.56226348876953,Left
2818.98095703125,91893,1,1771.0,1759.0,1807.0,1887.0,2038.0,1752.0,1763.0,1807.0,83.6289291381836,-16.81696128845215,-69.56226348876953,Left
2820.98095703125,91893,1,1801.0,1747.0,1786.0,1752.0,1743.0,1754.0,1759.0,1751.0,83.6289291381836,-16.81696128845215,-69.56226348876953,Left
2822.98095703125,91893,1,1813.0,1757.0,1721.0,1829.0,1781.0,1747.0,1768.0,1742.0,81.10574340820312,-18.503170013427734,-70.86695098876953,Left
2824.98095703125,91893,1,1804.0,1757.0,1725.0,1816.0,1573.0,1745.0,1763.0,1747.0,81.10574340820312,-18.503170013427734,-70.86695098876953,Left
2826.98095703125,91893,1,1799.0,1758.0,1708.0,1803.0,1369.0,1755.0,1759.0,1724.0,81.10574340820312,-18.503170013427734,-70.86695098876953,Left
2829.55810546875,91894,1,1765.0,1783.0,1721.0,1833.0,1501.0,1755.0,1764.0,1799.0,81.10574340820312,-18.503170013427734,-70.86695098876953,Left
2831.55810546875,91894,1,1735.0,1751.0,1769.0,1909.0,1956.0,1753.0,1765.0,1779.0,81.10574340820312,-18.503170013427734,-70.86695098876953,Left
2833.55810546875,91894,1,1710.0,1751.0,1758.0,1831.0,1685.0,1755.0,1765.0,1752.0,81.10574340820312,-18.503170013427734,-70.86695098876953,Left
2835.55810546875,91894,1,1707.0,1757.0,1734.0,1835.0,2101.0,1752.0,1765.0,1733.0,81.10574340820312,-18.503170013427734,-70.86695098876953,Left
2837.55810546875,91894,1,1721.0,1757.0,1791.0,2009.0,1711.0,1752.0,1758.0,1739.0,81.10574340820312,-18.503170013427734,-70.86695098876953,Left
2839.3779296875,91895,1,1773.0,1755.0,1767.0,2029.0,1465.0,1751.0,1763.0,1720.0,81.10574340820312,-18.503170013427734,-70.86695098876953,Left
2841.3779296875,91895,1,1783.0,1755.0,1737.0,1941.0,1445.0,1752.0,1765.0,1752.0,81.10574340820312,-18.503170013427734,-70.86695098876953,Left
2843.3779296875,91895,1,1783.0,1757.0,1823.0,2131.0,1588.0,1752.0,1766.0,1764.0,81.10574340820312,-18.503170013427734,-70.86695098876953,Left
2845.3779296875,91895,1,1767.0,1759.0,1716.0,2109.0,2579.0,1752.0,1767.0,1738.0,81.10574340820312,-18.503170013427734,-70.86695098876953,Left
2847.3779296875,91895,1,1743.0,1759.0,1769.0,1982.0,2112.0,1754.0,1763.0,1804.0,81.10574340820312,-18.503170013427734,-70.86695098876953,Left
2849.096923828125,91896,1,1692.0,1756.0,1756.0,1885.0,1687.0,1755.0,1767.0,1733.0,81.10574340820312,-18.503170013427734,-70.86695098876953,Left
2851.096923828125,91896,1,1685.0,1757.0,1774.0,1875.0,1439.0,1755.0,1755.0,1769.0,81.10574340820312,-18.503170013427734,-70.86695098876953,Left
2853.096923828125,91896,1,1660.0,1755.0,1759.0,1870.0,1685.0,1752.0,1767.0,1736.0,81.10574340820312,-18.503170013427734,-70.86695098876953,Left
2855.096923828125,91896,1,1653.0,1755.0,1711.0,1757.0,1451.0,1755.0,1757.0,1687.0,81.10574340820312,-18.503170013427734,-70.86695098876953,Left
2857.096923828125,91896,1,1661.0,1752.0,1767.0,1815.0,1915.0,1753.0,1767.0,1769.0,81.10574340820312,-18.503170013427734,-70.86695098876953,Left
2860.616943359375,91897,1,1707.0,1759.0,1802.0,1736.0,1956.0,1754.0,1763.0,1743.0,81.10574340820312,-18.503170013427734,-70.86695098876953,Left
2862.616943359375,91897,1,1752.0,1757.0,1803.0,1673.0,1640.0,1753.0,1763.0,1743.0,81.10574340820312,-18.503170013427734,-70.86695098876953,Left
2864.616943359375,91897,1,1767.0,1759.0,1790.0,1663.0,1357.0,1755.0,1764.0,1764.0,81.10574340820312,-18.503170013427734,-70.86695098876953,Left
2866.616943359375,91897,1,1775.0,1757.0,1774.0,1689.0,2234.0,1753.0,1765.0,1725.0,81.10574340820312,-18.503170013427734,-70.86695098876953,Left
2868.616943359375,91897,1,1767.0,1756.0,1724.0,1723.0,1967.0,1747.0,1765.0,1726.0,81.10574340820312,-18.503170013427734,-70.86695098876953,Left
2871.098876953125,91898,1,1727.0,1752.0,1690.0,1700.0,1705.0,1741.0,1756.0,1757.0,81.10574340820312,-18.503170013427734,-70.86695098876953,Left
2873.098876953125,91898,1,1711.0,1757.0,1721.0,1736.0,1108.0,1753.0,1763.0,1755.0,81.10574340820312,-18.503170013427734,-70.86695098876953,Left
2875.098876953125,91898,1,1691.0,1759.0,1739.0,1671.0,1683.0,1753.0,1767.0,1754.0,81.10574340820312,-18.503170013427734,-70.86695098876953,Left
2877.098876953125,91898,1,1691.0,1759.0,1692.0,1648.0,2687.0,1755.0,1762.0,1711.0,81.10574340820312,-18.503170013427734,-70.86695098876953,Left
2879.098876953125,91898,1,1715.0,1757.0,1747.0,1621.0,1235.0,1753.0,1765.0,1719.0,81.10574340820312,-18.503170013427734,-70.86695098876953,Left
2883.60400390625,91899,1,1755.0,1755.0,1803.0,1811.0,1183.0,1739.0,1763.0,1739.0,81.10574340820312,-18.503170013427734,-70.86695098876953,Left
2885.60400390625,91899,1,1791.0,1757.0,1805.0,1749.0,1383.0,1741.0,1764.0,1749.0,81.10574340820312,-18.503170013427734,-70.86695098876953,Left
2887.60400390625,91899,1,1810.0,1751.0,1725.0,1747.0,2235.0,1753.0,1765.0,1733.0,81.10574340820312,-18.503170013427734,-70.86695098876953,Left
2889.60400390625,91899,1,1819.0,1755.0,1717.0,1662.0,2035.0,1751.0,1765.0,1717.0,81.10574340820312,-18.503170013427734,-70.86695098876953,Left
2891.60400390625,91899,1,1800.0,1751.0,1765.0,1688.0,1892.0,1743.0,1764.0,1768.0,81.10574340820312,-18.503170013427734,-70.86695098876953,Left
2888.451904296875,91900,1,1762.0,1761.0,1773.0,1785.0,1673.0,1751.0,1758.0,1747.0,89.80073547363281,-19.838882446289062,-71.70468139648438,Left
2890.451904296875,91900,1,1735.0,1751.0,1722.0,1762.0,1525.0,1751.0,1753.0,1733.0,89.80073547363281,-19.838882446289062,-71.70468139648438,Left
2892.451904296875,91900,1,1706.0,1757.0,1749.0,1878.0,1501.0,1752.0,1767.0,1736.0,89.80073547363281,-19.838882446289062,-71.70468139648438,Left
2894.451904296875,91900,1,1701.0,1763.0,1755.0,1995.0,1656.0,1753.0,1759.0,1727.0,89.80073547363281,-19.838882446289062,-71.70468139648438,Left
2896.451904296875,91900,1,1719.0,1750.0,1823.0,1949.0,1907.0,1751.0,1763.0,1747.0,89.80073547363281,-19.838882446289062,-71.70468139648438,Left
2898.949951171875,91901,1,1754.0,1753.0,1815.0,1818.0,1669.0,1755.0,1755.0,1759.0,89.80073547363281,-19.838882446289062,-71.70468139648438,Left
2900.949951171875,91901,1,1799.0,1759.0,1767.0,1782.0,1607.0,1751.0,1763.0,1772.0,89.80073547363281,-19.838882446289062,-71.70468139648438,Left
2902.949951171875,91901,1,1818.0,1759.0,1750.0,1884.0,1123.0,1756.0,1763.0,1753.0,89.80073547363281,-19.838882446289062,-71.70468139648438,Left
2904.949951171875,91901,1,1821.0,1756.0,1635.0,1789.0,1591.0,1752.0,1765.0,1702.0,89.80073547363281,-19.838882446289062,-71.70468139648438,Left
2906.949951171875,91901,1,1805.0,1759.0,1559.0,1741.0,2245.0,1753.0,1768.0,1701.0,89.80073547363281,-19.838882446289062,-71.70468139648438,Left
2909.2099609375,91902,1,1767.0,1751.0,1725.0,1565.0,1883.0,1751.0,1763.0,1764.0,89.80073547363281,-19.838882446289062,-71.70468139648438,Left
2911.2099609375,91902,1,1736.0,1752.0,1774.0,1533.0,2213.0,1751.0,1755.0,1801.0,89.80073547363281,-19.838882446289062,-71.70468139648438,Left
2913.2099609375,91902,1,1709.0,1757.0,1762.0,1593.0,1525.0,1753.0,1755.0,1769.0,89.80073547363281,-19.838882446289062,-71.70468139648438,Left
2915.2099609375,91902,1,1700.0,1757.0,1759.0,1696.0,1530.0,1752.0,1767.0,1757.0,89.80073547363281,-19.838882446289062,-71.70468139648438,Left
2917.2099609375,91902,1,1719.0,1751.0,1780.0,1625.0,1978.0,1755.0,1767.0,1747.0,89.80073547363281,-19.838882446289062,-71.70468139648438,Left
2919.6591796875,91903,1,1757.0,1750.0,1791.0,1560.0,1647.0,1755.0,1765.0,1763.0,89.80073547363281,-19.838882446289062,-71.70468139648438,Left
2921.6591796875,91903,1,1799.0,1757.0,1801.0,1573.0,1693.0,1752.0,1763.0,1785.0,89.80073547363281,-19.838882446289062,-71.70468139648438,Left
2923.6591796875,91903,1,1819.0,1761.0,1798.0,1611.0,1622.0,1752.0,1763.0,1797.0,89.80073547363281,-19.838882446289062,-71.70468139648438,Left
2925.6591796875,91903,1,1824.0,1752.0,1774.0,1645.0,1433.0,1752.0,1764.0,1771.0,89.80073547363281,-19.838882446289062,-71.70468139648438,Left
2927.6591796875,91903,1,1813.0,1759.0,1754.0,1621.0,2275.0,1755.0,1763.0,1719.0,89.80073547363281,-19.838882446289062,-71.70468139648438,Left
2933.203857421875,91904,1,1767.0,1757.0,1737.0,1651.0,2005.0,1755.0,1753.0,1775.0,89.80073547363281,-19.838882446289062,-71.70468139648438,Left
2935.203857421875,91904,1,1739.0,1758.0,1701.0,1621.0,1709.0,1752.0,1762.0,1725.0,89.80073547363281,-19.838882446289062,-71.70468139648438,Left
2937.203857421875,91904,1,1717.0,1757.0,1717.0,1663.0,1707.0,1753.0,1765.0,1749.0,89.80073547363281,-19.838882446289062,-71.70468139648438,Left
2939.203857421875,91904,1,1701.0,1759.0,1660.0,1699.0,1679.0,1751.0,1755.0,1753.0,89.80073547363281,-19.838882446289062,-71.70468139648438,Left
2941.203857421875,91904,1,1714.0,1757.0,1596.0,1773.0,1741.0,1753.0,1763.0,1749.0,89.80073547363281,-19.838882446289062,-71.70468139648438,Left
2940.212890625,91905,1,1763.0,1762.0,1671.0,1717.0,1247.0,1753.0,1767.0,1739.0,89.80073547363281,-19.838882446289062,-71.70468139648438,Left
2942.212890625,91905,1,1799.0,1759.0,1722.0,1620.0,1791.0,1751.0,1752.0,1720.0,89.80073547363281,-19.838882446289062,-71.70468139648438,Left
2944.212890625,91905,1,1820.0,1755.0,1723.0,1497.0,1871.0,1754.0,1766.0,1723.0,89.80073547363281,-19.838882446289062,-71.70468139648438,Left
2946.212890625,91905,1,1838.0,1755.0,1865.0,1512.0,1824.0,1755.0,1764.0,1781.0,89.80073547363281,-19.838882446289062,-71.70468139648438,Left
2948.212890625,91905,1,1817.0,1757.0,1827.0,1605.0,1926.0,1755.0,1766.0,1740.0,89.80073547363281,-19.838882446289062,-71.70468139648438,Left
2949.254150390625,91906,1,1787.0,1757.0,1811.0,1651.0,1634.0,1751.0,1767.0,1753.0,89.80073547363281,-19.838882446289062,-71.70468139648438,Left
2951.254150390625,91906,1,1751.0,1757.0,1781.0,1646.0,1820.0,1743.0,1754.0,1738.0,89.80073547363281,-19.838882446289062,-71.70468139648438,Left
2953.254150390625,91906,1,1721.0,1755.0,1803.0,1705.0,1706.0,1753.0,1764.0,1763.0,89.80073547363281,-19.838882446289062,-71.70468139648438,Left
2955.254150390625,91906,1,1707.0,1761.0,1786.0,1736.0,1717.0,1751.0,1767.0,1740.0,89.80073547363281,-19.838882446289062,-71.70468139648438,Left
2957.254150390625,91906,1,1727.0,1749.0,1817.0,1673.0,1767.0,1741.0,1755.0,1748.0,99.25963592529297,-19.078086853027344,-67.50645446777344,Left
2959.16015625,91907,1,1759.0,1751.0,1821.0,1736.0,1658.0,1751.0,1765.0,1749.0,99.25963592529297,-19.078086853027344,-67.50645446777344,Left
2961.16015625,91907,1,1811.0,1761.0,1836.0,1675.0,1644.0,1746.0,1767.0,1747.0,99.25963592529297,-19.078086853027344,-67.50645446777344,Left
2963.16015625,91907,1,1833.0,1751.0,1815.0,1721.0,2019.0,1755.0,1765.0,1747.0,99.25963592529297,-19.078086853027344,-67.50645446777344,Left
2965.16015625,91907,1,1843.0,1756.0,1819.0,1678.0,1659.0,1745.0,1764.0,1749.0,99.25963592529297,-19.078086853027344,-67.50645446777344,Left
2967.16015625,91907,1,1817.0,1752.0,1768.0,1748.0,1753.0,1752.0,1765.0,1751.0,99.25963592529297,-19.078086853027344,-67.50645446777344,Left
2969.18115234375,91908,1,1786.0,1753.0,1778.0,1770.0,1679.0,1744.0,1765.0,1772.0,99.25963592529297,-19.078086853027344,-67.50645446777344,Left
2971.18115234375,91908,1,1747.0,1753.0,1788.0,1764.0,2063.0,1751.0,1755.0,1772.0,99.25963592529297,-19.078086853027344,-67.50645446777344,Left
2973.18115234375,91908,1,1723.0,1751.0,1788.0,1843.0,2121.0,1753.0,1763.0,1749.0,99.25963592529297,-19.078086853027344,-67.50645446777344,Left
2975.18115234375,91908,1,1707.0,1759.0,1780.0,1955.0,1561.0,1753.0,1765.0,1736.0,99.25963592529297,-19.078086853027344,-67.50645446777344,Left
2977.18115234375,91908,1,1725.0,1757.0,1735.0,1934.0,1623.0,1755.0,1763.0,1737.0,99.25963592529297,-19.078086853027344,-67.50645446777344,Left
2979.700927734375,91909,1,1766.0,1753.0,1747.0,1840.0,1669.0,1753.0,1764.0,1754.0,99.25963592529297,-19.078086853027344,-67.50645446777344,Left
2981.700927734375,91909,1,1801.0,1762.0,1799.0,1765.0,1572.0,1753.0,1763.0,1743.0,99.25963592529297,-19.078086853027344,-67.50645446777344,Left
2983.700927734375,91909,1,1831.0,1752.0,1791.0,1768.0,2168.0,1748.0,1764.0,1763.0,99.25963592529297,-19.078086853027344,-67.50645446777344,Left
2985.700927734375,91909,1,1839.0,1753.0,1776.0,1711.0,1565.0,1751.0,1763.0,1763.0,99.25963592529297,-19.078086853027344,-67.50645446777344,Left
2987.700927734375,91909,1,1827.0,1757.0,1737.0,1744.0,1738.0,1752.0,1765.0,1743.0,99.25963592529297,-19.078086853027344,-67.50645446777344,Left
2988.68212890625,91910,1,1788.0,1754.0,1703.0,1844.0,1913.0,1752.0,1765.0,1753.0,99.25963592529297,-19.078086853027344,-67.50645446777344,Left
2990.68212890625,91910,1,1753.0,1755.0,1741.0,1831.0,1651.0,1755.0,1767.0,1759.0,99.25963592529297,-19.078086853027344,-67.50645446777344,Left
2992.68212890625,91910,1,1723.0,1763.0,1769.0,1819.0,1693.0,1753.0,1767.0,1739.0,99.25963592529297,-19.078086853027344,-67.50645446777344,Left
2994.68212890625,91910,1,1703.0,1753.0,1765.0,1711.0,1847.0,1755.0,1763.0,1752.0,99.25963592529297,-19.078086853027344,-67.50645446777344,Left
2996.68212890625,91910,1,1711.0,1756.0,1813.0,1780.0,1661.0,1747.0,1767.0,1767.0,99.25963592529297,-19.078086853027344,-67.50645446777344,Left
2999.55712890625,91911,1,1755.0,1761.0,1783.0,1763.0,1879.0,1745.0,1764.0,1707.0,99.25963592529297,-19.078086853027344,-67.50645446777344,Left
3001.55712890625,91911,1,1800.0,1755.0,1779.0,1789.0,1645.0,1752.0,1765.0,1727.0,99.25963592529297,-19.078086853027344,-67.50645446777344,Left
3003.55712890625,91911,1,1822.0,1752.0,1726.0,1797.0,1932.0,1753.0,1765.0,1791.0,99.25963592529297,-19.078086853027344,-67.50645446777344,Left
3005.55712890625,91911,1,1831.0,1758.0,1771.0,1783.0,1765.0,1753.0,1767.0,1816.0,99.25963592529297,-19.078086853027344,-67.50645446777344,Left
3007.55712890625,91911,1,1820.0,1756.0,1797.0,1821.0,1651.0,1753.0,1764.0,1775.0,99.25963592529297,-19.078086853027344,-67.50645446777344,Left
3009.81689453125,91912,1,1781.0,1757.0,1750.0,1727.0,1804.0,1754.0,1757.0,1748.0,99.25963592529297,-19.078086853027344,-67.50645446777344,Left
3011.81689453125,91912,1,1745.0,1754.0,1715.0,1701.0,1695.0,1752.0,1764.0,1740.0,99.25963592529297,-19.078086853027344,-67.50645446777344,Left
3013.81689453125,91912,1,1720.0,1755.0,1695.0,1708.0,1571.0,1747.0,1767.0,1687.0,99.25963592529297,-19.078086853027344,-67.50645446777344,Left
3015.81689453125,91912,1,1706.0,1752.0,1771.0,1745.0,1419.0,1752.0,1764.0,1725.0,99.25963592529297,-19.078086853027344,-67.50645446777344,Left
3017.81689453125,91912,1,1717.0,1752.0,1823.0,1742.0,2011.0,1753.0,1763.0,1725.0,99.25963592529297,-19.078086853027344,-67.50645446777344,Left
3019.107177734375,91913,1,1723.0,1755.0,1820.0,1718.0,1243.0,1751.0,1755.0,1739.0,99.25963592529297,-19.078086853027344,-67.50645446777344,Left
3021.107177734375,91913,1,1797.0,1759.0,1811.0,1686.0,2041.0,1753.0,1767.0,1767.0,97.2618408203125,-18.837697982788086,-66.02841186523438,Left
3023.107177734375,91913,1,1822.0,1763.0,1832.0,1668.0,2056.0,1747.0,1765.0,1747.0,97.2618408203125,-18.837697982788086,-66.02841186523438,Left
3025.107177734375,91913,1,1836.0,1759.0,1763.0,1659.0,1781.0,1755.0,1766.0,1779.0,97.2618408203125,-18.837697982788086,-66.02841186523438,Left
3027.107177734375,91913,1,1820.0,1755.0,1720.0,1659.0,1831.0,1757.0,1765.0,1755.0,97.2618408203125,-18.837697982788086,-66.02841186523438,Left
3029.47998046875,91914,1,1785.0,1764.0,1596.0,1772.0,1513.0,1753.0,1767.0,1723.0,97.2618408203125,-18.837697982788086,-66.02841186523438,Left
3031.47998046875,91914,1,1753.0,1751.0,1813.0,1829.0,1498.0,1752.0,1767.0,1757.0,97.2618408203125,-18.837697982788086,-66.02841186523438,Left
3033.47998046875,91914,1,1717.0,1759.0,1845.0,1855.0,1630.0,1754.0,1765.0,1765.0,97.2618408203125,-18.837697982788086,-66.02841186523438,Left
3035.47998046875,91914,1,1701.0,1756.0,1673.0,1897.0,2129.0,1753.0,1754.0,1759.0,97.2618408203125,-18.837697982788086,-66.02841186523438,Left
3037.47998046875,91914,1,1714.0,1757.0,1670.0,1851.0,1964.0,1747.0,1765.0,1764.0,97.2618408203125,-18.837697982788086,-66.02841186523438,Left
3039.004150390625,91915,1,1739.0,1767.0,1771.0,1851.0,1561.0,1749.0,1767.0,1721.0,97.2618408203125,-18.837697982788086,-66.02841186523438,Left
3041.004150390625,91915,1,1785.0,1758.0,1827.0,1659.0,1640.0,1751.0,1762.0,1789.0,97.2618408203125,-18.837697982788086,-66.02841186523438,Left
3043.004150390625,91915,1,1819.0,1751.0,1811.0,1701.0,1671.0,1753.0,1763.0,1769.0,97.2618408203125,-18.837697982788086,-66.02841186523438,Left
3045.004150390625,91915,1,1833.0,1763.0,1758.0,1768.0,2133.0,1755.0,1763.0,1763.0,97.2618408203125,-18.837697982788086,-66.02841186523438,Left
3047.004150390625,91915,1,1819.0,1757.0,1775.0,1822.0,1671.0,1746.0,1767.0,1743.0,97.2618408203125,-18.837697982788086,-66.02841186523438,Left
3049.464111328125,91916,1,1783.0,1759.0,1767.0,1819.0,1323.0,1756.0,1759.0,1740.0,97.2618408203125,-18.837697982788086,-66.02841186523438,Left
3051.464111328125,91916,1,1753.0,1757.0,1753.0,1801.0,1983.0,1748.0,1763.0,1773.0,97.2618408203125,-18.837697982788086,-66.02841186523438,Left
3053.464111328125,91916,1,1723.0,1757.0,1749.0,1832.0,1491.0,1753.0,1763.0,1739.0,97.2618408203125,-18.837697982788086,-66.02841186523438,Left
3055.464111328125,91916,1,1695.0,1759.0,1751.0,1884.0,1907.0,1752.0,1765.0,1757.0,97.2618408203125,-18.837697982788086,-66.02841186523438,Left
3057.464111328125,91916,1,1709.0,1751.0,1757.0,1876.0,1903.0,1746.0,1763.0,1737.0,97.2618408203125,-18.837697982788086,-66.02841186523438,Left
3059.3701171875,91917,1,1741.0,1758.0,1741.0,1755.0,1589.0,1753.0,1763.0,1725.0,97.2618408203125,-18.837697982788086,-66.02841186523438,Left
3061.3701171875,91917,1,1789.0,1755.0,1813.0,1817.0,1932.0,1745.0,1753.0,1781.0,97.2618408203125,-18.837697982788086,-66.02841186523438,Left
3063.3701171875,91917,1,1816.0,1754.0,1771.0,1736.0,1755.0,1755.0,1763.0,1757.0,97.2618408203125,-18.837697982788086,-66.02841186523438,Left
3065.3701171875,91917,1,1831.0,1758.0,1748.0,1582.0,1673.0,1745.0,1753.0,1753.0,97.2618408203125,-18.837697982788086,-66.02841186523438,Left
3067.3701171875,91917,1,1820.0,1763.0,1761.0,1661.0,1831.0,1752.0,1754.0,1755.0,97.2618408203125,-18.837697982788086,-66.02841186523438,Left
3069.3291015625,91918,1,1785.0,1759.0,1755.0,1756.0,1683.0,1754.0,1757.0,1753.0,97.2618408203125,-18.837697982788086,-66.02841186523438,Left
3071.3291015625,91918,1,1757.0,1757.0,1727.0,1775.0,1661.0,1753.0,1767.0,1767.0,97.2618408203125,-18.837697982788086,-66.02841186523438,Left
3073.3291015625,91918,1,1725.0,1755.0,1752.0,1767.0,2063.0,1747.0,1763.0,1736.0,97.2618408203125,-18.837697982788086,-66.02841186523438,Left
3075.3291015625,91918,1,1701.0,1759.0,1748.0,1695.0,1419.0,1753.0,1755.0,1743.0,97.2618408203125,-18.837697982788086,-66.02841186523438,Left
3077.3291015625,91918,1,1701.0,1757.0,1759.0,1719.0,1747.0,1755.0,1755.0,1745.0,97.2618408203125,-18.837697982788086,-66.02841186523438,Left
3079.3681640625,91919,1,1737.0,1765.0,1757.0,1764.0,2077.0,1747.0,1765.0,1740.0,97.2618408203125,-18.837697982788086,-66.02841186523438,Left
3081.3681640625,91919,1,1779.0,1757.0,1787.0,1824.0,1517.0,1754.0,1765.0,1753.0,97.2618408203125,-18.837697982788086,-66.02841186523438,Left
3083.3681640625,91919,1,1806.0,1751.0,1775.0,1755.0,1931.0,1752.0,1764.0,1766.0,97.2618408203125,-18.837697982788086,-66.02841186523438,Left
3085.3681640625,91919,1,1821.0,1759.0,1749.0,1787.0,1525.0,1753.0,1758.0,1745.0,97.2618408203125,-18.837697982788086,-66.02841186523438,Left
3087.3681640625,91919,1,1820.0,1753.0,1741.0,1757.0,2121.0,1752.0,1767.0,1757.0,97.56432342529297,-19.15327262878418,-66.62557983398438,Left
3090.929931640625,91920,1,1807.0,1750.0,1717.0,1863.0,1650.0,1752.0,1765.0,1747.0,97.56432342529297,-19.15327262878418,-66.62557983398438,Left
3092.929931640625,91920,1,1758.0,1755.0,1740.0,1907.0,1837.0,1756.0,1764.0,1751.0,97.56432342529297,-19.15327262878418,-66.62557983398438,Left
3094.929931640625,91920,1,1727.0,1759.0,1691.0,1871.0,1721.0,1753.0,1755.0,1755.0,97.56432342529297,-19.15327262878418,-66.62557983398438,Left
3096.929931640625,91920,1,1703.0,1758.0,1682.0,1860.0,1683.0,1746.0,1766.0,1736.0,97.56432342529297,-19.15327262878418,-66.62557983398438,Left
3098.929931640625,91920,1,1706.0,1757.0,1751.0,1711.0,1721.0,1753.0,1759.0,1755.0,97.56432342529297,-19.15327262878418,-66.62557983398438,Left
3099.2861328125,91921,1,1733.0,1753.0,1785.0,1724.0,1758.0,1753.0,1759.0,1746.0,97.56432342529297,-19.15327262878418,-66.62557983398438,Left
3101.2861328125,91921,1,1783.0,1757.0,1791.0,1751.0,1749.0,1754.0,1765.0,1738.0,97.56432342529297,-19.15327262878418,-66.62557983398438,Left
3103.2861328125,91921,1,1805.0,1759.0,1811.0,1785.0,1750.0,1752.0,1763.0,1757.0,97.56432342529297,-19.15327262878418,-66.62557983398438,Left
3105.2861328125,91921,1,1831.0,1758.0,1784.0,1708.0,1828.0,1750.0,1766.0,1813.0,97.56432342529297,-19.15327262878418,-66.62557983398438,Left
3107.2861328125,91921,1,1822.0,1759.0,1674.0,1671.0,1679.0,1755.0,1763.0,1769.0,97.56432342529297,-19.15327262878418,-66.62557983398438,Left
3109.947021484375,91922,1,1789.0,1766.0,1721.0,1752.0,1607.0,1753.0,1767.0,1735.0,97.56432342529297,-19.15327262878418,-66.62557983398438,Left
3111.947021484375,91922,1,1761.0,1757.0,1750.0,1801.0,1863.0,1753.0,1756.0,1708.0,97.56432342529297,-19.15327262878418,-66.62557983398438,Left
3113.947021484375,91922,1,1720.0,1759.0,1831.0,1831.0,2183.0,1755.0,1765.0,1749.0,97.56432342529297,-19.15327262878418,-66.62557983398438,Left
3115.947021484375,91922,1,1695.0,1758.0,1801.0,1900.0,1638.0,1753.0,1763.0,1753.0,97.56432342529297,-19.15327262878418,-66.62557983398438,Left
3117.947021484375,91922,1,1699.0,1757.0,1803.0,1839.0,1578.0,1748.0,1765.0,1748.0,97.56432342529297,-19.15327262878418,-66.62557983398438,Left
3119.3330078125,91923,1,1734.0,1749.0,1759.0,1838.0,2006.0,1753.0,1761.0,1724.0,97.56432342529297,-19.15327262878418,-66.62557983398438,Left
3121.3330078125,91923,1,1775.0,1757.0,1767.0,1751.0,1722.0,1750.0,1753.0,1749.0,97.56432342529297,-19.15327262878418,-66.62557983398438,Left
3123.3330078125,91923,1,1811.0,1757.0,1769.0,1722.0,1624.0,1753.0,1763.0,1767.0,97.56432342529297,-19.15327262878418,-66.62557983398438,Left
3125.3330078125,91923,1,1827.0,1757.0,1779.0,1745.0,1705.0,1752.0,1762.0,1779.0,97.56432342529297,-19.15327262878418,-66.62557983398438,Left
3127.3330078125,91923,1,1822.0,1757.0,1789.0,1724.0,1768.0,1752.0,1765.0,1743.0,97.56432342529297,-19.15327262878418,-66.62557983398438,Left
3129.31591796875,91924,1,1791.0,1759.0,1817.0,1771.0,1926.0,1746.0,1765.0,1773.0,97.56432342529297,-19.15327262878418,-66.62557983398438,Left
3131.31591796875,91924,1,1764.0,1757.0,1746.0,1747.0,1523.0,1753.0,1767.0,1737.0,97.56432342529297,-19.15327262878418,-66.62557983398438,Left
3133.31591796875,91924,1,1727.0,1751.0,1583.0,1769.0,1864.0,1752.0,1763.0,1749.0,97.56432342529297,-19.15327262878418,-66.62557983398438,Left
3135.31591796875,91924,1,1703.0,1750.0,1679.0,1668.0,1737.0,1753.0,1761.0,1767.0,97.56432342529297,-19.15327262878418,-66.62557983398438,Left
3137.31591796875,91924,1,1704.0,1757.0,1773.0,1669.0,1636.0,1754.0,1766.0,1745.0,97.56432342529297,-19.15327262878418,-66.62557983398438,Left
3139.51904296875,91925,1,1721.0,1763.0,1805.0,1628.0,1656.0,1751.0,1755.0,1786.0,97.56432342529297,-19.15327262878418,-66.62557983398438,Left
3141.51904296875,91925,1,1771.0,1757.0,1811.0,1635.0,1560.0,1751.0,1763.0,1759.0,97.56432342529297,-19.15327262878418,-66.62557983398438,Left
3143.51904296875,91925,1,1809.0,1755.0,1757.0,1609.0,2253.0,1753.0,1753.0,1734.0,97.56432342529297,-19.15327262878418,-66.62557983398438,Left
3145.51904296875,91925,1,1817.0,1758.0,1779.0,1517.0,1758.0,1749.0,1752.0,1755.0,97.56432342529297,-19.15327262878418,-66.62557983398438,Left
3147.51904296875,91925,1,1817.0,1751.0,1771.0,1599.0,1739.0,1752.0,1759.0,1743.0,97.56432342529297,-19.15327262878418,-66.62557983398438,Left
3149.744873046875,91926,1,1798.0,1756.0,1743.0,1661.0,1544.0,1747.0,1767.0,1741.0,97.56432342529297,-19.15327262878418,-66.62557983398438,Left
3151.744873046875,91926,1,1765.0,1759.0,1743.0,1685.0,1511.0,1754.0,1767.0,1718.0,97.89971923828125,-19.312204360961914,-67.22569274902344,Left
3153.744873046875,91926,1,1727.0,1759.0,1753.0,1765.0,2063.0,1745.0,1767.0,1789.0,97.89971923828125,-19.312204360961914,-67.22569274902344,Left
3155.744873046875,91926,1,1704.0,1757.0,1771.0,1836.0,1653.0,1749.0,1752.0,1769.0,97.89971923828125,-19.312204360961914,-67.22569274902344,Left
3157.744873046875,91926,1,1701.0,1759.0,1751.0,1783.0,1597.0,1745.0,1765.0,1739.0,97.89971923828125,-19.312204360961914,-67.22569274902344,Left
3159.44970703125,91927,1,1723.0,1759.0,1764.0,1759.0,1927.0,1752.0,1765.0,1733.0,97.89971923828125,-19.312204360961914,-67.22569274902344,Left
3161.44970703125,91927,1,1769.0,1756.0,1787.0,1865.0,1988.0,1750.0,1765.0,1765.0,97.89971923828125,-19.312204360961914,-67.22569274902344,Left
3163.44970703125,91927,1,1806.0,1751.0,1763.0,1817.0,1651.0,1754.0,1759.0,1745.0,97.89971923828125,-19.312204360961914,-67.22569274902344,Left
3165.44970703125,91927,1,1823.0,1759.0,1759.0,1939.0,1635.0,1745.0,1762.0,1757.0,97.89971923828125,-19.312204360961914,-67.22569274902344,Left
3167.44970703125,91927,1,1816.0,1759.0,1743.0,1887.0,1609.0,1751.0,1755.0,1739.0,97.89971923828125,-19.312204360961914,-67.22569274902344,Left
3169.458984375,91928,1,1800.0,1757.0,1756.0,1870.0,2072.0,1753.0,1767.0,1769.0,97.89971923828125,-19.312204360961914,-67.22569274902344,Left
3171.458984375,91928,1,1769.0,1755.0,1749.0,1972.0,1607.0,1753.0,1755.0,1748.0,97.89971923828125,-19.312204360961914,-67.22569274902344,Left
3173.458984375,91928,1,1735.0,1750.0,1741.0,1946.0,1897.0,1741.0,1755.0,1739.0,97.89971923828125,-19.312204360961914,-67.22569274902344,Left
3175.458984375,91928,1,1705.0,1759.0,1766.0,1883.0,1739.0,1750.0,1765.0,1739.0,97.89971923828125,-19.312204360961914,-67.22569274902344,Left
3177.458984375,91928,1,1701.0,1756.0,1756.0,1903.0,1452.0,1752.0,1759.0,1733.0,97.89971923828125,-19.312204360961914,-67.22569274902344,Left
3181.180908203125,91929,1,1719.0,1755.0,1797.0,1817.0,1789.0,1753.0,1757.0,1771.0,97.89971923828125,-19.312204360961914,-67.22569274902344,Left
3183.180908203125,91929,1,1767.0,1751.0,1786.0,1788.0,1945.0,1743.0,1763.0,1749.0,97.89971923828125,-19.312204360961914,-67.22569274902344,Left
3185.180908203125,91929,1,1805.0,1757.0,1766.0,1821.0,1787.0,1751.0,1765.0,1747.0,97.89971923828125,-19.312204360961914,-67.22569274902344,Left
3187.180908203125,91929,1,1817.0,1763.0,1724.0,1709.0,1910.0,1753.0,1765.0,1740.0,97.89971923828125,-19.312204360961914,-67.22569274902344,Left
3189.180908203125,91929,1,1827.0,1759.0,1781.0,1756.0,1519.0,1743.0,1765.0,1779.0,97.89971923828125,-19.312204360961914,-67.22569274902344,Left
3191.303955078125,91930,1,1809.0,1755.0,1789.0,1674.0,1719.0,1752.0,1763.0,1755.0,97.89971923828125,-19.312204360961914,-67.22569274902344,Left
3193.303955078125,91930,1,1768.0,1755.0,1747.0,1725.0,1647.0,1753.0,1754.0,1762.0,97.89971923828125,-19.312204360961914,-67.22569274902344,Left
3195.303955078125,91930,1,1737.0,1758.0,1749.0,1663.0,1737.0,1755.0,1754.0,1751.0,97.89971923828125,-19.312204360961914,-67.22569274902344,Left
3197.303955078125,91930,1,1709.0,1762.0,1678.0,1711.0,2028.0,1752.0,1765.0,1720.0,97.89971923828125,-19.312204360961914,-67.22569274902344,Left
3199.303955078125,91930,1,1705.0,1756.0,1692.0,1693.0,1673.0,1751.0,1765.0,1695.0,97.89971923828125,-19.312204360961914,-67.22569274902344,Left
3201.235107421875,91931,1,1721.0,1763.0,1802.0,1736.0,1740.0,1755.0,1763.0,1750.0,97.89971923828125,-19.312204360961914,-67.22569274902344,Left
3203.235107421875,91931,1,1755.0,1757.0,1804.0,1818.0,1674.0,1753.0,1765.0,1788.0,97.89971923828125,-19.312204360961914,-67.22569274902344,Left
3205.235107421875,91931,1,1799.0,1751.0,1791.0,1725.0,1725.0,1753.0,1755.0,1780.0,97.89971923828125,-19.312204360961914,-67.22569274902344,Left
3207.235107421875,91931,1,1820.0,1759.0,1723.0,1683.0,1579.0,1751.0,1763.0,1767.0,97.89971923828125,-19.312204360961914,-67.22569274902344,Left
3209.235107421875,91931,1,1823.0,1757.0,1743.0,1655.0,1871.0,1755.0,1765.0,1735.0,97.89971923828125,-19.312204360961914,-67.22569274902344,Left
3209.560791015625,91932,1,1804.0,1761.0,1765.0,1651.0,1903.0,1751.0,1759.0,1752.0,97.89971923828125,-19.312204360961914,-67.22569274902344,Left
3211.560791015625,91932,1,1765.0,1756.0,1717.0,1700.0,1735.0,1751.0,1754.0,1748.0,97.89971923828125,-19.312204360961914,-67.22569274902344,Left
3213.560791015625,91932,1,1736.0,1757.0,1739.0,1759.0,1719.0,1742.0,1765.0,1749.0,97.89971923828125,-19.312204360961914,-67.22569274902344,Left
3215.560791015625,91932,1,1707.0,1759.0,1749.0,1864.0,1737.0,1753.0,1754.0,1751.0,97.89971923828125,-19.312204360961914,-67.22569274902344,Left
3217.560791015625,91932,1,1701.0,1757.0,1774.0,1852.0,1736.0,1747.0,1764.0,1743.0,98.40010833740234,-19.196102142333984,-67.6844711303711,Left
3220.572998046875,91933,1,1715.0,1759.0,1773.0,1877.0,1710.0,1752.0,1755.0,1753.0,98.40010833740234,-19.196102142333984,-67.6844711303711,Left
3222.572998046875,91933,1,1757.0,1749.0,1782.0,1803.0,1693.0,1751.0,1767.0,1741.0,98.40010833740234,-19.196102142333984,-67.6844711303711,Left
3224.572998046875,91933,1,1805.0,1758.0,1790.0,1871.0,1801.0,1743.0,1767.0,1756.0,98.40010833740234,-19.196102142333984,-67.6844711303711,Left
3226.572998046875,91933,1,1821.0,1757.0,1771.0,1880.0,1750.0,1753.0,1763.0,1747.0,98.40010833740234,-19.196102142333984,-67.6844711303711,Left
3228.572998046875,91933,1,1827.0,1758.0,1749.0,1734.0,1787.0,1753.0,1764.0,1749.0,98.40010833740234,-19.196102142333984,-67.6844711303711,Left
3229.14013671875,91934,1,1801.0,1765.0,1741.0,1767.0,1699.0,1748.0,1759.0,1751.0,98.40010833740234,-19.196102142333984,-67.6844711303711,Left
3231.14013671875,91934,1,1771.0,1757.0,1736.0,1809.0,1659.0,1753.0,1764.0,1757.0,98.40010833740234,-19.196102142333984,-67.6844711303711,Left
3233.14013671875,91934,1,1737.0,1757.0,1739.0,1837.0,1869.0,1751.0,1765.0,1749.0,98.40010833740234,-19.196102142333984,-67.6844711303711,Left
3235.14013671875,91934,1,1705.0,1758.0,1736.0,1812.0,1775.0,1745.0,1764.0,1740.0,98.40010833740234,-19.196102142333984,-67.6844711303711,Left
3237.14013671875,91934,1,1695.0,1756.0,1735.0,1772.0,1755.0,1753.0,1764.0,1740.0,98.40010833740234,-19.196102142333984,-67.6844711303711,Left
3241.76220703125,91935,1,1710.0,1755.0,1784.0,1636.0,1868.0,1753.0,1755.0,1765.0,98.40010833740234,-19.196102142333984,-67.6844711303711,Left
3243.76220703125,91935,1,1755.0,1758.0,1821.0,1633.0,1721.0,1753.0,1762.0,1767.0,98.40010833740234,-19.196102142333984,-67.6844711303711,Left
3245.76220703125,91935,1,1797.0,1759.0,1813.0,1595.0,1755.0,1743.0,1763.0,1742.0,98.40010833740234,-19.196102142333984,-67.6844711303711,Left
3247.76220703125,91935,1,1813.0,1758.0,1769.0,1626.0,1734.0,1751.0,1755.0,1747.0,98.40010833740234,-19.196102142333984,-67.6844711303711,Left
3249.76220703125,91935,1,1830.0,1762.0,1741.0,1703.0,1800.0,1755.0,1763.0,1759.0,98.40010833740234,-19.196102142333984,-67.6844711303711,Left
3249.618896484375,91936,1,1815.0,1757.0,1751.0,1721.0,1787.0,1754.0,1753.0,1751.0,98.40010833740234,-19.196102142333984,-67.6844711303711,Left
3251.618896484375,91936,1,1780.0,1754.0,1701.0,1838.0,1510.0,1755.0,1761.0,1723.0,98.40010833740234,-19.196102142333984,-67.6844711303711,Left
3253.618896484375,91936,1,1741.0,1757.0,1750.0,1775.0,1611.0,1753.0,1763.0,1761.0,98.40010833740234,-19.196102142333984,-67.6844711303711,Left
3255.618896484375,91936,1,1711.0,1759.0,1734.0,1894.0,1367.0,1742.0,1766.0,1767.0,98.40010833740234,-19.196102142333984,-67.6844711303711,Left
3257.618896484375,91936,1,1700.0,1757.0,1773.0,1849.0,2340.0,1752.0,1763.0,1770.0,98.40010833740234,-19.196102142333984,-67.6844711303711,Left
3259.251220703125,91937,1,1711.0,1763.0,1757.0,1812.0,1495.0,1754.0,1764.0,1747.0,98.40010833740234,-19.196102142333984,-67.6844711303711,Left
3261.251220703125,91937,1,1753.0,1759.0,1786.0,1701.0,1655.0,1745.0,1763.0,1751.0,98.40010833740234,-19.196102142333984,-67.6844711303711,Left
3263.251220703125,91937,1,1799.0,1761.0,1805.0,1675.0,1886.0,1754.0,1755.0,1775.0,98.40010833740234,-19.196102142333984,-67.6844711303711,Left
3265.251220703125,91937,1,1818.0,1751.0,1775.0,1645.0,1647.0,1751.0,1765.0,1723.0,98.40010833740234,-19.196102142333984,-67.6844711303711,Left
3267.251220703125,91937,1,1820.0,1756.0,1687.0,1621.0,1811.0,1754.0,1764.0,1702.0,98.40010833740234,-19.196102142333984,-67.6844711303711,Left
3269.30908203125,91938,1,1801.0,1758.0,1767.0,1646.0,1853.0,1753.0,1764.0,1764.0,98.40010833740234,-19.196102142333984,-67.6844711303711,Left
3271.30908203125,91938,1,1779.0,1755.0,1767.0,1709.0,1644.0,1756.0,1767.0,1763.0,98.40010833740234,-19.196102142333984,-67.6844711303711,Left
3273.30908203125,91938,1,1743.0,1757.0,1736.0,1811.0,1711.0,1753.0,1762.0,1751.0,98.40010833740234,-19.196102142333984,-67.6844711303711,Left
3275.30908203125,91938,1,1715.0,1758.0,1751.0,1911.0,1337.0,1752.0,1767.0,1758.0,98.40010833740234,-19.196102142333984,-67.6844711303711,Left
3277.30908203125,91938,1,1699.0,1758.0,1739.0,1931.0,2292.0,1747.0,1765.0,1753.0,98.40010833740234,-19.196102142333984,-67.6844711303711,Left
3283.656005859375,91939,1,1709.0,1755.0,1769.0,1855.0,1829.0,1745.0,1765.0,1767.0,98.40010833740234,-19.196102142333984,-67.6844711303711,Left
3285.656005859375,91939,1,1748.0,1751.0,1779.0,1869.0,1759.0,1751.0,1764.0,1751.0,98.40034484863281,-19.123523712158203,-67.99711608886719,Left
3287.656005859375,91939,1,1791.0,1751.0,1765.0,1867.0,1621.0,1753.0,1759.0,1757.0,98.40034484863281,-19.123523712158203,-67.99711608886719,Left
3289.656005859375,91939,1,1818.0,1755.0,1773.0,1810.0,1695.0,1747.0,1763.0,1751.0,98.40034484863281,-19.123523712158203,-67.99711608886719,Left
3291.656005859375,91939,1,1827.0,1757.0,1816.0,1749.0,1817.0,1752.0,1765.0,1755.0,98.40034484863281,-19.123523712158203,-67.99711608886719,Left
3291.99609375,91940,1,1785.0,1757.0,1791.0,1723.0,1769.0,1743.0,1756.0,1719.0,98.40034484863281,-19.123523712158203,-67.99711608886719,Left
3293.99609375,91940,1,1781.0,1751.0,1741.0,1820.0,1708.0,1747.0,1767.0,1747.0,98.40034484863281,-19.123523712158203,-67.99711608886719,Left
3295.99609375,91940,1,1736.0,1755.0,1672.0,1685.0,1765.0,1746.0,1767.0,1767.0,98.40034484863281,-19.123523712158203,-67.99711608886719,Left
3297.99609375,91940,1,1715.0,1758.0,1637.0,1695.0,1769.0,1753.0,1766.0,1763.0,98.40034484863281,-19.123523712158203,-67.99711608886719,Left
3299.99609375,91940,1,1694.0,1751.0,1775.0,1787.0,1618.0,1753.0,1762.0,1758.0,98.40034484863281,-19.123523712158203,-67.99711608886719,Left
3301.441162109375,91941,1,1715.0,1751.0,1800.0,1763.0,1707.0,1746.0,1766.0,1747.0,98.40034484863281,-19.123523712158203,-67.99711608886719,Left
3303.441162109375,91941,1,1736.0,1758.0,1779.0,1719.0,1829.0,1747.0,1763.0,1737.0,98.40034484863281,-19.123523712158203,-67.99711608886719,Left
3305.441162109375,91941,1,1785.0,1759.0,1779.0,1661.0,1875.0,1755.0,1765.0,1747.0,98.40034484863281,-19.123523712158203,-67.99711608886719,Left
3307.441162109375,91941,1,1815.0,1759.0,1764.0,1653.0,1817.0,1753.0,1765.0,1743.0,98.40034484863281,-19.123523712158203,-67.99711608886719,Left
3309.441162109375,91941,1,1828.0,1759.0,1767.0,1693.0,1629.0,1751.0,1763.0,1765.0,98.40034484863281,-19.123523712158203,-67.99711608886719,Left
3310.9208984375,91942,1,1812.0,1752.0,1758.0,1805.0,1583.0,1740.0,1755.0,1767.0,98.40034484863281,-19.123523712158203,-67.99711608886719,Left
3312.9208984375,91942,1,1781.0,1757.0,1767.0,1773.0,1677.0,1751.0,1763.0,1763.0,98.40034484863281,-19.123523712158203,-67.99711608886719,Left
3314.9208984375,91942,1,1738.0,1762.0,1753.0,1755.0,1879.0,1754.0,1762.0,1755.0,98.40034484863281,-19.123523712158203,-67.99711608886719,Left
3316.9208984375,91942,1,1717.0,1759.0,1749.0,1809.0,1939.0,1751.0,1763.0,1751.0,98.40034484863281,-19.123523712158203,-67.99711608886719,Left
3318.9208984375,91942,1,1695.0,1757.0,1741.0,1861.0,1703.0,1753.0,1755.0,1755.0,98.40034484863281,-19.123523712158203,-67.99711608886719,Left
3319.93408203125,91943,1,1700.0,1766.0,1769.0,1871.0,1311.0,1737.0,1750.0,1753.0,98.40034484863281,-19.123523712158203,-67.99711608886719,Left
3321.93408203125,91943,1,1743.0,1757.0,1769.0,1863.0,2296.0,1753.0,1755.0,1735.0,98.40034484863281,-19.123523712158203,-67.99711608886719,Left
3323.93408203125,91943,1,1787.0,1759.0,1788.0,1691.0,1976.0,1747.0,1755.0,1735.0,98.40034484863281,-19.123523712158203,-67.99711608886719,Left
3325.93408203125,91943,1,1815.0,1751.0,1763.0,1751.0,1646.0,1753.0,1763.0,1736.0,98.40034484863281,-19.123523712158203,-67.99711608886719,Left
3327.93408203125,91943,1,1831.0,1757.0,1775.0,1752.0,1735.0,1753.0,1763.0,1762.0,98.40034484863281,-19.123523712158203,-67.99711608886719,Left
3330.7548828125,91944,1,1811.0,1756.0,1723.0,1803.0,1671.0,1743.0,1765.0,1761.0,98.40034484863281,-19.123523712158203,-67.99711608886719,Left
3332.7548828125,91944,1,1787.0,1750.0,1751.0,1783.0,1787.0,1756.0,1767.0,1763.0,98.40034484863281,-19.123523712158203,-67.99711608886719,Left
3334.7548828125,91944,1,1751.0,1753.0,1727.0,1769.0,1769.0,1753.0,1755.0,1750.0,98.40034484863281,-19.123523712158203,-67.99711608886719,Left
3336.7548828125,91944,1,1717.0,1753.0,1727.0,1753.0,1499.0,1753.0,1767.0,1757.0,98.40034484863281,-19.123523712158203,-67.99711608886719,Left
3338.7548828125,91944,1,1695.0,1757.0,1779.0,1751.0,1836.0,1754.0,1763.0,1751.0,98.40034484863281,-19.123523712158203,-67.99711608886719,Left
3340.52001953125,91945,1,1733.0,1763.0,1759.0,1742.0,1863.0,1748.0,1757.0,1741.0,98.40034484863281,-19.123523712158203,-67.99711608886719,Left
3342.52001953125,91945,1,1733.0,1759.0,1768.0,1727.0,1579.0,1746.0,1765.0,1771.0,98.40034484863281,-19.123523712158203,-67.99711608886719,Left
3344.52001953125,91945,1,1783.0,1751.0,1785.0,1699.0,1718.0,1753.0,1756.0,1758.0,98.40034484863281,-19.123523712158203,-67.99711608886719,Left
3346.52001953125,91945,1,1815.0,1752.0,1755.0,1725.0,1463.0,1754.0,1765.0,1741.0,98.40034484863281,-19.123523712158203,-67.99711608886719,Left
3348.52001953125,91945,1,1828.0,1759.0,1735.0,1703.0,1971.0,1753.0,1759.0,1739.0,98.64604187011719,-18.969289779663086,-68.2834243774414,Left
3349.84619140625,91946,1,1806.0,1759.0,1751.0,1645.0,1803.0,1741.0,1756.0,1743.0,98.64604187011719,-18.969289779663086,-68.2834243774414,Left
3351.84619140625,91946,1,1788.0,1758.0,1747.0,1693.0,1718.0,1743.0,1758.0,1737.0,98.64604187011719,-18.969289779663086,-68.2834243774414,Left
3353.84619140625,91946,1,1755.0,1758.0,1737.0,1704.0,1885.0,1754.0,1756.0,1741.0,98.64604187011719,-18.969289779663086,-68.2834243774414,Left
3355.84619140625,91946,1,1722.0,1758.0,1775.0,1803.0,1783.0,1751.0,1759.0,1759.0,98.64604187011719,-18.969289779663086,-68.2834243774414,Left
3357.84619140625,91946,1,1691.0,1758.0,1754.0,1865.0,1677.0,1752.0,1765.0,1749.0,98.64604187011719,-18.969289779663086,-68.2834243774414,Left
3359.39013671875,91947,1,1710.0,1748.0,1756.0,1811.0,1577.0,1755.0,1764.0,1725.0,98.64604187011719,-18.969289779663086,-68.2834243774414,Left
3361.39013671875,91947,1,1739.0,1752.0,1770.0,1805.0,1695.0,1746.0,1763.0,1756.0,98.64604187011719,-18.969289779663086,-68.2834243774414,Left
3363.39013671875,91947,1,1780.0,1759.0,1779.0,1799.0,1699.0,1755.0,1755.0,1741.0,98.64604187011719,-18.969289779663086,-68.2834243774414,Left
3365.39013671875,91947,1,1817.0,1757.0,1756.0,1675.0,1712.0,1754.0,1765.0,1749.0,98.64604187011719,-18.969289779663086,-68.2834243774414,Left
3367.39013671875,91947,1,1827.0,1757.0,1765.0,1743.0,1748.0,1752.0,1766.0,1747.0,98.64604187011719,-18.969289779663086,-68.2834243774414,Left
3371.031005859375,91948,1,1809.0,1757.0,1767.0,1776.0,1823.0,1752.0,1756.0,1748.0,98.64604187011719,-18.969289779663086,-68.2834243774414,Left
3373.031005859375,91948,1,1790.0,1756.0,1753.0,1755.0,1771.0,1755.0,1766.0,1757.0,98.64604187011719,-18.969289779663086,-68.2834243774414,Left
3375.031005859375,91948,1,1752.0,1759.0,1755.0,1673.0,1784.0,1753.0,1756.0,1757.0,98.64604187011719,-18.969289779663086,-68.2834243774414,Left
3377.031005859375,91948,1,1715.0,1757.0,1719.0,1785.0,1702.0,1753.0,1757.0,1756.0,98.64604187011719,-18.969289779663086,-68.2834243774414,Left
3379.031005859375,91948,1,1694.0,1759.0,1722.0,1833.0,1659.0,1746.0,1765.0,1746.0,98.64604187011719,-18.969289779663086,-68.2834243774414,Left
3379.530029296875,91949,1,1709.0,1741.0,1764.0,1727.0,1860.0,1746.0,1762.0,1747.0,98.64604187011719,-18.969289779663086,-68.2834243774414,Left
3381.530029296875,91949,1,1735.0,1759.0,1771.0,1703.0,1433.0,1752.0,1757.0,1749.0,98.64604187011719,-18.969289779663086,-68.2834243774414,Left
3383.530029296875,91949,1,1775.0,1762.0,1784.0,1619.0,2093.0,1753.0,1765.0,1757.0,98.64604187011719,-18.969289779663086,-68.2834243774414,Left
3385.530029296875,91949,1,1810.0,1759.0,1798.0,1678.0,1787.0,1755.0,1765.0,1751.0,98.64604187011719,-18.969289779663086,-68.2834243774414,Left
3387.530029296875,91949,1,1823.0,1763.0,1767.0,1767.0,1691.0,1751.0,1765.0,1753.0,98.64604187011719,-18.969289779663086,-68.2834243774414,Left
3401.7119140625,91950,1,1817.0,1753.0,1748.0,1773.0,1683.0,1751.0,1763.0,1721.0,98.64604187011719,-18.969289779663086,-68.2834243774414,Left
3403.7119140625,91950,1,1791.0,1758.0,1719.0,1783.0,1735.0,1753.0,1766.0,1747.0,98.64604187011719,-18.969289779663086,-68.2834243774414,Left
3405.7119140625,91950,1,1751.0,1761.0,1720.0,1919.0,1717.0,1746.0,1765.0,1763.0,98.64604187011719,-18.969289779663086,-68.2834243774414,Left
3407.7119140625,91950,1,1721.0,1759.0,1755.0,1884.0,1773.0,1743.0,1759.0,1785.0,98.64604187011719,-18.969289779663086,-68.2834243774414,Left
3409.7119140625,91950,1,1691.0,1758.0,1781.0,1860.0,1851.0,1752.0,1762.0,1757.0,98.64604187011719,-18.969289779663086,-68.2834243774414,Left
3402.618896484375,91951,1,1705.0,1763.0,1755.0,1799.0,1699.0,1749.0,1754.0,1737.0,98.64604187011719,-18.969289779663086,-68.2834243774414,Left
3404.618896484375,91951,1,1733.0,1751.0,1758.0,1747.0,1646.0,1753.0,1757.0,1737.0,98.64604187011719,-18.969289779663086,-68.2834243774414,Left
3406.618896484375,91951,1,1767.0,1759.0,1770.0,1779.0,1875.0,1747.0,1764.0,1743.0,98.64604187011719,-18.969289779663086,-68.2834243774414,Left
3408.618896484375,91951,1,1803.0,1759.0,1763.0,1789.0,1755.0,1757.0,1765.0,1745.0,98.64604187011719,-18.969289779663086,-68.2834243774414,Left
3410.618896484375,91951,1,1815.0,1751.0,1781.0,1775.0,1746.0,1753.0,1763.0,1767.0,98.64604187011719,-18.969289779663086,-68.2834243774414,Left
3409.578125,91952,1,1805.0,1749.0,1770.0,1707.0,1608.0,1751.0,1763.0,1775.0,98.64604187011719,-18.969289779663086,-68.2834243774414,Left
3411.578125,91952,1,1797.0,1755.0,1741.0,1775.0,2065.0,1753.0,1766.0,1749.0,98.4900131225586,-18.929601669311523,-68.18872833251953,Left
3413.578125,91952,1,1755.0,1755.0,1753.0,1799.0,1813.0,1743.0,1767.0,1749.0,98.4900131225586,-18.929601669311523,-68.18872833251953,Left
3415.578125,91952,1,1723.0,1758.0,1741.0,1677.0,1813.0,1752.0,1755.0,1747.0,98.4900131225586,-18.929601669311523,-68.18872833251953,Left
3417.578125,91952,1,1699.0,1761.0,1762.0,1735.0,1623.0,1751.0,1768.0,1753.0,98.4900131225586,-18.929601669311523,-68.18872833251953,Left
3421.798828125,91953,1,1703.0,1754.0,1767.0,1701.0,1814.0,1747.0,1765.0,1759.0,98.4900131225586,-18.929601669311523,-68.18872833251953,Left
3423.798828125,91953,1,1725.0,1754.0,1748.0,1719.0,1651.0,1753.0,1767.0,1756.0,98.4900131225586,-18.929601669311523,-68.18872833251953,Left
3425.798828125,91953,1,1768.0,1763.0,1715.0,1737.0,1519.0,1755.0,1765.0,1740.0,98.4900131225586,-18.929601669311523,-68.18872833251953,Left
3427.798828125,91953,1,1807.0,1759.0,1750.0,1721.0,1979.0,1753.0,1766.0,1763.0,98.4900131225586,-18.929601669311523,-68.18872833251953,Left
3429.798828125,91953,1,1821.0,1758.0,1767.0,1710.0,1787.0,1755.0,1765.0,1753.0,98.4900131225586,-18.929601669311523,-68.18872833251953,Left
3428.96923828125,91954,1,1817.0,1748.0,1754.0,1644.0,1707.0,1755.0,1757.0,1718.0,98.4900131225586,-18.929601669311523,-68.18872833251953,Left
3430.96923828125,91954,1,1798.0,1762.0,1761.0,1643.0,1669.0,1751.0,1764.0,1753.0,98.4900131225586,-18.929601669311523,-68.18872833251953,Left
3432.96923828125,91954,1,1755.0,1759.0,1721.0,1690.0,1685.0,1748.0,1763.0,1751.0,98.4900131225586,-18.929601669311523,-68.18872833251953,Left
3434.96923828125,91954,1,1727.0,1751.0,1739.0,1788.0,1787.0,1755.0,1765.0,1743.0,98.4900131225586,-18.929601669311523,-68.18872833251953,Left
3436.96923828125,91954,1,1701.0,1763.0,1769.0,1819.0,1742.0,1747.0,1767.0,1757.0,98.4900131225586,-18.929601669311523,-68.18872833251953,Left
3440.960205078125,91955,1,1703.0,1746.0,1752.0,1753.0,1851.0,1746.0,1763.0,1765.0,98.4900131225586,-18.929601669311523,-68.18872833251953,Left
3442.960205078125,91955,1,1721.0,1755.0,1769.0,1813.0,1628.0,1753.0,1766.0,1742.0,98.4900131225586,-18.929601669311523,-68.18872833251953,Left
3444.960205078125,91955,1,1769.0,1763.0,1788.0,1800.0,1653.0,1752.0,1763.0,1746.0,98.4900131225586,-18.929601669311523,-68.18872833251953,Left
3446.960205078125,91955,1,1805.0,1761.0,1765.0,1853.0,1883.0,1750.0,1755.0,1769.0,98.4900131225586,-18.929601669311523,-68.18872833251953,Left
3448.960205078125,91955,1,1823.0,1757.0,1769.0,1853.0,1595.0,1753.0,1767.0,1747.0,98.4900131225586,-18.929601669311523,-68.18872833251953,Left
3451.1259765625,91956,1,1815.0,1756.0,1745.0,1775.0,1763.0,1751.0,1762.0,1724.0,98.4900131225586,-18.929601669311523,-68.18872833251953,Left
3453.1259765625,91956,1,1799.0,1757.0,1739.0,1837.0,1910.0,1753.0,1768.0,1745.0,98.4900131225586,-18.929601669311523,-68.18872833251953,Left
3455.1259765625,91956,1,1762.0,1751.0,1737.0,1848.0,1753.0,1743.0,1763.0,1765.0,98.4900131225586,-18.929601669311523,-68.18872833251953,Left
3457.1259765625,91956,1,1720.0,1751.0,1763.0,1743.0,1701.0,1754.0,1761.0,1751.0,98.4900131225586,-18.929601669311523,-68.18872833251953,Left
3459.1259765625,91956,1,1702.0,1757.0,1759.0,1820.0,1757.0,1755.0,1765.0,1752.0,98.4900131225586,-18.929601669311523,-68.18872833251953,Left
3461.14306640625,91957,1,1700.0,1759.0,1770.0,1772.0,1737.0,1750.0,1766.0,1758.0,98.4900131225586,-18.929601669311523,-68.18872833251953,Left
3463.14306640625,91957,1,1720.0,1759.0,1767.0,1763.0,1695.0,1753.0,1759.0,1733.0,98.4900131225586,-18.929601669311523,-68.18872833251953,Left
3465.14306640625,91957,1,1767.0,1757.0,1755.0,1805.0,1710.0,1755.0,1765.0,1727.0,98.4900131225586,-18.929601669311523,-68.18872833251953,Left
3467.14306640625,91957,1,1801.0,1751.0,1771.0,1813.0,1765.0,1752.0,1759.0,1757.0,98.4900131225586,-18.929601669311523,-68.18872833251953,Left
3469.14306640625,91957,1,1819.0,1751.0,1767.0,1821.0,1819.0,1751.0,1763.0,1742.0,98.4900131225586,-18.929601669311523,-68.18872833251953,Left
3469.050048828125,91958,1,1817.0,1734.0,1735.0,1853.0,1786.0,1749.0,1759.0,1742.0,98.4900131225586,-18.929601669311523,-68.18872833251953,Left
3471.050048828125,91958,1,1801.0,1755.0,1737.0,1904.0,1673.0,1755.0,1763.0,1767.0,98.4900131225586,-18.929601669311523,-68.18872833251953,Left
3473.050048828125,91958,1,1767.0,1759.0,1750.0,1896.0,1727.0,1749.0,1763.0,1757.0,98.4900131225586,-18.929601669311523,-68.18872833251953,Left
3475.050048828125,91958,1,1723.0,1763.0,1768.0,1789.0,1679.0,1753.0,1767.0,1759.0,98.4900131225586,-18.929601669311523,-68.18872833251953,Left
3477.050048828125,91958,1,1703.0,1757.0,1762.0,1709.0,1895.0,1751.0,1763.0,1747.0,98.4255142211914,-18.998584747314453,-68.06179809570312,Left
3479.51220703125,91959,1,1691.0,1749.0,1758.0,1737.0,1571.0,1755.0,1767.0,1747.0,98.4255142211914,-18.998584747314453,-68.06179809570312,Left
3481.51220703125,91959,1,1721.0,1757.0,1745.0,1655.0,1580.0,1751.0,1763.0,1737.0,98.4255142211914,-18.998584747314453,-68.06179809570312,Left
3483.51220703125,91959,1,1762.0,1753.0,1771.0,1611.0,2205.0,1753.0,1755.0,1775.0,98.4255142211914,-18.998584747314453,-68.06179809570312,Left
3485.51220703125,91959,1,1797.0,1756.0,1797.0,1576.0,1751.0,1751.0,1763.0,1753.0,98.4255142211914,-18.998584747314453,-68.06179809570312,Left
3487.51220703125,91959,1,1821.0,1757.0,1801.0,1677.0,1811.0,1753.0,1767.0,1753.0,98.4255142211914,-18.998584747314453,-68.06179809570312,Left
3489.640869140625,91960,1,1819.0,1751.0,1749.0,1755.0,1653.0,1745.0,1765.0,1747.0,98.4255142211914,-18.998584747314453,-68.06179809570312,Left
3491.640869140625,91960,1,1805.0,1758.0,1749.0,1755.0,1740.0,1755.0,1756.0,1752.0,98.4255142211914,-18.998584747314453,-68.06179809570312,Left
3493.640869140625,91960,1,1769.0,1759.0,1717.0,1745.0,1801.0,1752.0,1765.0,1725.0,98.4255142211914,-18.998584747314453,-68.06179809570312,Left
3495.640869140625,91960,1,1723.0,1759.0,1684.0,1785.0,1773.0,1752.0,1766.0,1741.0,98.4255142211914,-18.998584747314453,-68.06179809570312,Left
3497.640869140625,91960,1,1695.0,1759.0,1747.0,1789.0,1683.0,1745.0,1765.0,1773.0,98.4255142211914,-18.998584747314453,-68.06179809570312,Left
3502.458984375,91961,1,1689.0,1756.0,1779.0,1819.0,1719.0,1747.0,1766.0,1768.0,98.4255142211914,-18.998584747314453,-68.06179809570312,Left
3504.458984375,91961,1,1719.0,1759.0,1791.0,1766.0,1791.0,1753.0,1762.0,1752.0,98.4255142211914,-18.998584747314453,-68.06179809570312,Left
3506.458984375,91961,1,1753.0,1763.0,1764.0,1753.0,1791.0,1753.0,1765.0,1733.0,98.4255142211914,-18.998584747314453,-68.06179809570312,Left
3508.458984375,91961,1,1801.0,1751.0,1799.0,1682.0,1675.0,1754.0,1763.0,1759.0,98.4255142211914,-18.998584747314453,-68.06179809570312,Left
3510.458984375,91961,1,1818.0,1759.0,1771.0,1660.0,1627.0,1751.0,1764.0,1740.0,98.4255142211914,-18.998584747314453,-68.06179809570312,Left
3511.739990234375,91962,1,1820.0,1755.0,1757.0,1685.0,1849.0,1743.0,1763.0,1755.0,98.4255142211914,-18.998584747314453,-68.06179809570312,Left
3513.739990234375,91962,1,1805.0,1751.0,1765.0,1645.0,1950.0,1752.0,1763.0,1751.0,98.4255142211914,-18.998584747314453,-68.06179809570312,Left
3515.739990234375,91962,1,1768.0,1762.0,1737.0,1779.0,1580.0,1755.0,1759.0,1749.0,98.4255142211914,-18.998584747314453,-68.06179809570312,Left
3517.739990234375,91962,1,1733.0,1759.0,1727.0,1738.0,1789.0,1753.0,1765.0,1748.0,98.4255142211914,-18.998584747314453,-68.06179809570312,Left
3519.739990234375,91962,1,1707.0,1757.0,1739.0,1765.0,1718.0,1753.0,1755.0,1754.0,98.4255142211914,-18.998584747314453,-68.06179809570312,Left
3519.2060546875,91963,1,1691.0,1752.0,1757.0,1757.0,1668.0,1739.0,1755.0,1746.0,98.4255142211914,-18.998584747314453,-68.06179809570312,Left
3521.2060546875,91963,1,1721.0,1763.0,1771.0,1721.0,1814.0,1751.0,1767.0,1753.0,98.4255142211914,-18.998584747314453,-68.06179809570312,Left
3523.2060546875,91963,1,1751.0,1751.0,1767.0,1709.0,1734.0,1752.0,1765.0,1754.0,98.4255142211914,-18.998584747314453,-68.06179809570312,Left
3525.2060546875,91963,1,1803.0,1759.0,1758.0,1563.0,1959.0,1751.0,1759.0,1757.0,98.4255142211914,-18.998584747314453,-68.06179809570312,Left
3527.2060546875,91963,1,1813.0,1761.0,1743.0,1619.0,1785.0,1753.0,1767.0,1747.0,98.4255142211914,-18.998584747314453,-68.06179809570312,Left
3529.51318359375,91964,1,1821.0,1764.0,1773.0,1689.0,1722.0,1743.0,1756.0,1740.0,98.4255142211914,-18.998584747314453,-68.06179809570312,Left
3531.51318359375,91964,1,1799.0,1751.0,1743.0,1753.0,1711.0,1752.0,1765.0,1748.0,98.4255142211914,-18.998584747314453,-68.06179809570312,Left
3533.51318359375,91964,1,1773.0,1759.0,1768.0,1821.0,1719.0,1752.0,1766.0,1734.0,98.4255142211914,-18.998584747314453,-68.06179809570312,Left
3535.51318359375,91964,1,1737.0,1762.0,1776.0,1811.0,1693.0,1747.0,1767.0,1749.0,98.4255142211914,-18.998584747314453,-68.06179809570312,Left
3537.51318359375,91964,1,1709.0,1759.0,1746.0,1759.0,1707.0,1755.0,1767.0,1749.0,98.4255142211914,-18.998584747314453,-68.06179809570312,Left
3542.19921875,91965,1,1692.0,1758.0,1763.0,1807.0,1837.0,1756.0,1763.0,1766.0,98.4255142211914,-18.998584747314453,-68.06179809570312,Left
3544.19921875,91965,1,1715.0,1759.0,1785.0,1804.0,1507.0,1747.0,1767.0,1769.0,98.64105224609375,-19.082130432128906,-68.0722427368164,Left
3546.19921875,91965,1,1754.0,1763.0,1798.0,1813.0,2101.0,1753.0,1755.0,1759.0,98.64105224609375,-19.082130432128906,-68.0722427368164,Left
3548.19921875,91965,1,1799.0,1757.0,1809.0,1757.0,1703.0,1752.0,1753.0,1757.0,98.64105224609375,-19.082130432128906,-68.0722427368164,Left
3550.19921875,91965,1,1819.0,1762.0,1747.0,1753.0,1735.0,1747.0,1767.0,1746.0,98.64105224609375,-19.082130432128906,-68.0722427368164,Left
3549.385009765625,91966,1,1822.0,1757.0,1677.0,1758.0,1789.0,1750.0,1763.0,1740.0,98.64105224609375,-19.082130432128906,-68.0722427368164,Left
3551.385009765625,91966,1,1804.0,1757.0,1695.0,1813.0,1687.0,1755.0,1765.0,1745.0,98.64105224609375,-19.082130432128906,-68.0722427368164,Left
3553.385009765625,91966,1,1773.0,1757.0,1781.0,1845.0,1726.0,1755.0,1757.0,1767.0,98.64105224609375,-19.082130432128906,-68.0722427368164,Left
3555.385009765625,91966,1,1739.0,1759.0,1757.0,1821.0,1747.0,1755.0,1766.0,1746.0,98.64105224609375,-19.082130432128906,-68.0722427368164,Left
3557.385009765625,91966,1,1711.0,1761.0,1761.0,1829.0,1755.0,1755.0,1763.0,1747.0,98.64105224609375,-19.082130432128906,-68.0722427368164,Left
3559.650146484375,91967,1,1689.0,1743.0,1766.0,1836.0,1755.0,1752.0,1765.0,1747.0,98.64105224609375,-19.082130432128906,-68.0722427368164,Left
3561.650146484375,91967,1,1711.0,1759.0,1752.0,1815.0,1775.0,1753.0,1755.0,1737.0,98.64105224609375,-19.082130432128906,-68.0722427368164,Left
3563.650146484375,91967,1,1750.0,1757.0,1767.0,1772.0,1735.0,1753.0,1767.0,1751.0,98.64105224609375,-19.082130432128906,-68.0722427368164,Left
3565.650146484375,91967,1,1787.0,1756.0,1789.0,1779.0,1779.0,1751.0,1763.0,1763.0,98.64105224609375,-19.082130432128906,-68.0722427368164,Left
3567.650146484375,91967,1,1817.0,1757.0,1791.0,1739.0,1647.0,1753.0,1763.0,1759.0,98.64105224609375,-19.082130432128906,-68.0722427368164,Left
3571.7451171875,91968,1,1819.0,1747.0,1759.0,1851.0,2035.0,1753.0,1756.0,1747.0,98.64105224609375,-19.082130432128906,-68.0722427368164,Left
3573.7451171875,91968,1,1811.0,1753.0,1751.0,1875.0,1679.0,1753.0,1763.0,1739.0,98.64105224609375,-19.082130432128906,-68.0722427368164,Left
3575.7451171875,91968,1,1779.0,1757.0,1768.0,1742.0,1820.0,1753.0,1755.0,1756.0,98.64105224609375,-19.082130432128906,-68.0722427368164,Left
3577.7451171875,91968,1,1739.0,1758.0,1769.0,1738.0,1685.0,1753.0,1763.0,1763.0,98.64105224609375,-19.082130432128906,-68.0722427368164,Left
3579.7451171875,91968,1,1714.0,1757.0,1769.0,1772.0,1765.0,1751.0,1765.0,1769.0,98.64105224609375,-19.082130432128906,-68.0722427368164,Left
3585.615966796875,91969,1,1686.0,1763.0,1749.0,1701.0,1750.0,1753.0,1757.0,1739.0,98.64105224609375,-19.082130432128906,-68.0722427368164,Left
3587.615966796875,91969,1,1716.0,1747.0,1736.0,1689.0,1769.0,1754.0,1763.0,1748.0,98.64105224609375,-19.082130432128906,-68.0722427368164,Left
3589.615966796875,91969,1,1746.0,1762.0,1769.0,1753.0,1690.0,1747.0,1763.0,1741.0,98.64105224609375,-19.082130432128906,-68.0722427368164,Left
3591.615966796875,91969,1,1789.0,1757.0,1765.0,1829.0,1811.0,1751.0,1762.0,1745.0,98.64105224609375,-19.082130432128906,-68.0722427368164,Left
3593.615966796875,91969,1,1813.0,1757.0,1747.0,1767.0,1765.0,1750.0,1767.0,1756.0,98.64105224609375,-19.082130432128906,-68.0722427368164,Left
3589.02880859375,91970,1,1819.0,1747.0,1767.0,1779.0,1695.0,1751.0,1759.0,1739.0,98.64105224609375,-19.082130432128906,-68.0722427368164,Left
3591.02880859375,91970,1,1811.0,1757.0,1765.0,1746.0,1715.0,1753.0,1755.0,1753.0,98.64105224609375,-19.082130432128906,-68.0722427368164,Left
3593.02880859375,91970,1,1771.0,1757.0,1756.0,1749.0,1758.0,1753.0,1765.0,1753.0,98.64105224609375,-19.082130432128906,-68.0722427368164,Left
3595.02880859375,91970,1,1742.0,1763.0,1752.0,1811.0,1839.0,1753.0,1764.0,1738.0,98.64105224609375,-19.082130432128906,-68.0722427368164,Left
3597.02880859375,91970,1,1715.0,1755.0,1765.0,1959.0,1721.0,1755.0,1765.0,1736.0,98.64105224609375,-19.082130432128906,-68.0722427368164,Left
3602.052001953125,91971,1,1691.0,1756.0,1755.0,1850.0,1771.0,1747.0,1765.0,1763.0,98.64105224609375,-19.082130432128906,-68.0722427368164,Left
3604.052001953125,91971,1,1711.0,1757.0,1775.0,1823.0,1768.0,1752.0,1765.0,1799.0,98.64105224609375,-19.082130432128906,-68.0722427368164,Left
3606.052001953125,91971,1,1743.0,1763.0,1773.0,1815.0,1813.0,1755.0,1755.0,1775.0,98.64105224609375,-19.082130432128906,-68.0722427368164,Left
3608.052001953125,91971,1,1789.0,1752.0,1759.0,1751.0,1656.0,1755.0,1757.0,1721.0,98.80941009521484,-19.177736282348633,-68.2406234741211,Left
3610.052001953125,91971,1,1817.0,1755.0,1772.0,1693.0,1789.0,1752.0,1763.0,1755.0,98.80941009521484,-19.177736282348633,-68.2406234741211,Left
3611.449951171875,91972,1,1823.0,1767.0,1767.0,1621.0,1631.0,1745.0,1764.0,1747.0,98.80941009521484,-19.177736282348633,-68.2406234741211,Left
3613.449951171875,91972,1,1812.0,1749.0,1758.0,1739.0,1811.0,1751.0,1765.0,1756.0,98.80941009521484,-19.177736282348633,-68.2406234741211,Left
3615.449951171875,91972,1,1784.0,1758.0,1763.0,1789.0,1611.0,1752.0,1755.0,1763.0,98.80941009521484,-19.177736282348633,-68.2406234741211,Left
3617.449951171875,91972,1,1745.0,1757.0,1750.0,1741.0,2025.0,1753.0,1762.0,1739.0,98.80941009521484,-19.177736282348633,-68.2406234741211,Left
3619.449951171875,91972,1,1717.0,1759.0,1725.0,1737.0,1739.0,1747.0,1767.0,1746.0,98.80941009521484,-19.177736282348633,-68.2406234741211,Left
3620.966064453125,91973,1,1693.0,1754.0,1763.0,1783.0,1705.0,1747.0,1759.0,1753.0,98.80941009521484,-19.177736282348633,-68.2406234741211,Left
3622.966064453125,91973,1,1711.0,1751.0,1771.0,1689.0,1769.0,1753.0,1764.0,1752.0,98.80941009521484,-19.177736282348633,-68.2406234741211,Left
3624.966064453125,91973,1,1742.0,1759.0,1767.0,1657.0,1682.0,1755.0,1755.0,1735.0,98.80941009521484,-19.177736282348633,-68.2406234741211,Left
3626.966064453125,91973,1,1785.0,1757.0,1767.0,1687.0,1672.0,1749.0,1763.0,1749.0,98.80941009521484,-19.177736282348633,-68.2406234741211,Left
3628.966064453125,91973,1,1814.0,1761.0,1732.0,1725.0,1763.0,1753.0,1762.0,1727.0,98.80941009521484,-19.177736282348633,-68.2406234741211,Left
3629.350830078125,91974,1,1820.0,1747.0,1750.0,1766.0,1753.0,1757.0,1761.0,1747.0,98.80941009521484,-19.177736282348633,-68.2406234741211,Left
3631.350830078125,91974,1,1813.0,1757.0,1751.0,1893.0,1875.0,1752.0,1756.0,1763.0,98.80941009521484,-19.177736282348633,-68.2406234741211,Left
3633.350830078125,91974,1,1783.0,1759.0,1763.0,1845.0,1803.0,1752.0,1766.0,1757.0,98.80941009521484,-19.177736282348633,-68.2406234741211,Left
3635.350830078125,91974,1,1743.0,1761.0,1769.0,1847.0,1752.0,1751.0,1765.0,1759.0,98.80941009521484,-19.177736282348633,-68.2406234741211,Left
3637.350830078125,91974,1,1715.0,1751.0,1779.0,1783.0,1675.0,1751.0,1756.0,1773.0,98.80941009521484,-19.177736282348633,-68.2406234741211,Left
3639.30908203125,91975,1,1690.0,1748.0,1743.0,1845.0,1763.0,1751.0,1763.0,1749.0,98.80941009521484,-19.177736282348633,-68.2406234741211,Left
3641.30908203125,91975,1,1707.0,1759.0,1780.0,1833.0,1673.0,1753.0,1763.0,1749.0,98.80941009521484,-19.177736282348633,-68.2406234741211,Left
3643.30908203125,91975,1,1727.0,1757.0,1779.0,1653.0,1804.0,1751.0,1755.0,1746.0,98.80941009521484,-19.177736282348633,-68.2406234741211,Left
3645.30908203125,91975,1,1781.0,1759.0,1762.0,1686.0,1768.0,1753.0,1753.0,1739.0,98.80941009521484,-19.177736282348633,-68.2406234741211,Left
3647.30908203125,91975,1,1805.0,1755.0,1746.0,1727.0,1705.0,1753.0,1765.0,1741.0,98.80941009521484,-19.177736282348633,-68.2406234741211,Left
