Timestamp_ms,Packet_Number,Trial_ID,Ch1,Ch2,Ch3,Ch4,Ch5,Ch6,Ch7,Ch8,Ch9,Ch10,Ch11,Label
2070.820068359375,23182,1,1749.0,1811.0,1757.0,1785.0,1745.0,1847.0,1757.0,1675.0,54.57829666137695,-54.31352233886719,-2.0964536666870117,Left
2072.820068359375,23182,1,1759.0,1700.0,1771.0,1758.0,1753.0,1663.0,1767.0,1656.0,54.57829666137695,-54.31352233886719,-2.0964536666870117,Left
2074.820068359375,23182,1,1761.0,1637.0,1735.0,1734.0,1721.0,1695.0,1768.0,1757.0,54.57829666137695,-54.31352233886719,-2.0964536666870117,Left
2076.820068359375,23182,1,1759.0,1757.0,1763.0,1807.0,1743.0,1629.0,1768.0,1791.0,54.57829666137695,-54.31352233886719,-2.0964536666870117,Left
2078.820068359375,23182,1,1751.0,1817.0,1766.0,1836.0,1769.0,1391.0,1767.0,1829.0,54.57829666137695,-54.31352233886719,-2.0964536666870117,Left
2071.7119140625,23183,1,1750.0,1747.0,1742.0,1717.0,1738.0,1422.0,1764.0,1913.0,54.57829666137695,-54.31352233886719,-2.0964536666870117,Left
2073.7119140625,23183,1,1759.0,1709.0,1737.0,1674.0,1735.0,1590.0,1769.0,1911.0,54.57829666137695,-54.31352233886719,-2.0964536666870117,Left
2075.7119140625,23183,1,1765.0,1750.0,1755.0,1736.0,1755.0,1496.0,1765.0,1955.0,54.57829666137695,-54.31352233886719,-2.0964536666870117,Left
2077.7119140625,23183,1,1761.0,1815.0,1753.0,1783.0,1783.0,1579.0,1767.0,1763.0,54.57829666137695,-54.31352233886719,-2.0964536666870117,Left
2079.7119140625,23183,1,1765.0,1784.0,1770.0,1800.0,1766.0,1939.0,1759.0,1785.0,54.57829666137695,-54.31352233886719,-2.0964536666870117,Left
2072.22314453125,23184,1,1763.0,1725.0,1763.0,1725.0,1726.0,1742.0,1767.0,1779.0,54.57829666137695,-54.31352233886719,-2.0964536666870117,Left
2074.22314453125,23184,1,1765.0,1773.0,1771.0,1786.0,1739.0,1463.0,1764.0,1815.0,54.57829666137695,-54.31352233886719,-2.0964536666870117,Left
2076.22314453125,23184,1,1756.0,1749.0,1737.0,1799.0,1765.0,1307.0,1759.0,1752.0,54.57829666137695,-54.31352233886719,-2.0964536666870117,Left
2078.22314453125,23184,1,1753.0,1773.0,1755.0,1775.0,1788.0,1239.0,1769.0,1781.0,54.57829666137695,-54.31352233886719,-2.0964536666870117,Left
2080.22314453125,23184,1,1761.0,1767.0,1781.0,1737.0,1736.0,1102.0,1761.0,1775.0,54.57829666137695,-54.31352233886719,-2.0964536666870117,Left
2073.34619140625,23185,1,1749.0,1745.0,1783.0,1772.0,1766.0,1111.0,1749.0,1739.0,54.57829666137695,-54.31352233886719,-2.0964536666870117,Left
2075.34619140625,23185,1,1757.0,1653.0,1740.0,1749.0,1717.0,1434.0,1769.0,1693.0,54.57829666137695,-54.31352233886719,-2.0964536666870117,Left
2077.34619140625,23185,1,1765.0,1763.0,1722.0,1781.0,1765.0,1519.0,1765.0,1796.0,54.57829666137695,-54.31352233886719,-2.0964536666870117,Left
2079.34619140625,23185,1,1755.0,1789.0,1754.0,1759.0,1768.0,1501.0,1766.0,1748.0,59.88890838623047,-55.41815185546875,-2.0528757572174072,Left
2081.34619140625,23185,1,1763.0,1763.0,1746.0,1735.0,1739.0,1949.0,1765.0,1617.0,59.88890838623047,-55.41815185546875,-2.0528757572174072,Left
2073.745361328125,23186,1,1763.0,1771.0,1769.0,1757.0,1783.0,2001.0,1767.0,1647.0,59.88890838623047,-55.41815185546875,-2.0528757572174072,Left
2075.745361328125,23186,1,1766.0,1805.0,1787.0,1764.0,1751.0,1882.0,1757.0,1718.0,59.88890838623047,-55.41815185546875,-2.0528757572174072,Left
2077.745361328125,23186,1,1751.0,1835.0,1763.0,1755.0,1775.0,1851.0,1766.0,1673.0,59.88890838623047,-55.41815185546875,-2.0528757572174072,Left
2079.745361328125,23186,1,1753.0,1685.0,1764.0,1733.0,1699.0,1869.0,1752.0,1448.0,59.88890838623047,-55.41815185546875,-2.0528757572174072,Left
2081.745361328125,23186,1,1765.0,1720.0,1751.0,1765.0,1769.0,1659.0,1765.0,1639.0,59.88890838623047,-55.41815185546875,-2.0528757572174072,Left
2074.109375,23187,1,1763.0,1721.0,1727.0,1736.0,1757.0,1439.0,1763.0,1815.0,59.88890838623047,-55.41815185546875,-2.0528757572174072,Left
2076.109375,23187,1,1759.0,1739.0,1762.0,1763.0,1723.0,1932.0,1737.0,1492.0,59.88890838623047,-55.41815185546875,-2.0528757572174072,Left
2078.109375,23187,1,1764.0,1742.0,1772.0,1768.0,1748.0,1753.0,1759.0,1883.0,59.88890838623047,-55.41815185546875,-2.0528757572174072,Left
2080.109375,23187,1,1759.0,1754.0,1766.0,1771.0,1769.0,1773.0,1769.0,1783.0,59.88890838623047,-55.41815185546875,-2.0528757572174072,Left
2082.109375,23187,1,1762.0,1788.0,1767.0,1750.0,1741.0,2063.0,1749.0,1827.0,59.88890838623047,-55.41815185546875,-2.0528757572174072,Left
2075.630126953125,23188,1,1759.0,1785.0,1751.0,1767.0,1751.0,2067.0,1749.0,1844.0,59.88890838623047,-55.41815185546875,-2.0528757572174072,Left
2077.630126953125,23188,1,1763.0,1750.0,1752.0,1781.0,1752.0,1768.0,1750.0,1899.0,59.88890838623047,-55.41815185546875,-2.0528757572174072,Left
2079.630126953125,23188,1,1765.0,1755.0,1766.0,1781.0,1737.0,1701.0,1765.0,1833.0,59.88890838623047,-55.41815185546875,-2.0528757572174072,Left
2081.630126953125,23188,1,1757.0,1751.0,1739.0,1769.0,1756.0,1733.0,1767.0,1727.0,59.88890838623047,-55.41815185546875,-2.0528757572174072,Left
2083.630126953125,23188,1,1751.0,1751.0,1723.0,1811.0,1733.0,1605.0,1751.0,1523.0,59.88890838623047,-55.41815185546875,-2.0528757572174072,Left
2084.39697265625,23189,1,1756.0,1743.0,1711.0,1721.0,1753.0,1197.0,1753.0,1677.0,59.88890838623047,-55.41815185546875,-2.0528757572174072,Left
2086.39697265625,23189,1,1763.0,1763.0,1797.0,1763.0,1748.0,1437.0,1758.0,1563.0,59.88890838623047,-55.41815185546875,-2.0528757572174072,Left
2088.39697265625,23189,1,1767.0,1781.0,1803.0,1801.0,1749.0,1375.0,1753.0,1783.0,59.88890838623047,-55.41815185546875,-2.0528757572174072,Left
2090.39697265625,23189,1,1756.0,1771.0,1791.0,1768.0,1755.0,1513.0,1764.0,1683.0,59.88890838623047,-55.41815185546875,-2.0528757572174072,Left
2092.39697265625,23189,1,1759.0,1787.0,1773.0,1770.0,1775.0,1919.0,1765.0,1775.0,59.88890838623047,-55.41815185546875,-2.0528757572174072,Left
2092.60693359375,23190,1,1763.0,1803.0,1745.0,1766.0,1765.0,1975.0,1765.0,1621.0,59.88890838623047,-55.41815185546875,-2.0528757572174072,Left
2094.60693359375,23190,1,1751.0,1775.0,1755.0,1773.0,1739.0,2010.0,1768.0,1835.0,59.88890838623047,-55.41815185546875,-2.0528757572174072,Left
2096.60693359375,23190,1,1765.0,1683.0,1779.0,1748.0,1717.0,1881.0,1768.0,1690.0,59.88890838623047,-55.41815185546875,-2.0528757572174072,Left
2098.60693359375,23190,1,1764.0,1641.0,1747.0,1643.0,1733.0,1943.0,1761.0,1635.0,59.88890838623047,-55.41815185546875,-2.0528757572174072,Left
2100.60693359375,23190,1,1764.0,1788.0,1739.0,1757.0,1765.0,1671.0,1769.0,1674.0,59.88890838623047,-55.41815185546875,-2.0528757572174072,Left
2105.19921875,23191,1,1764.0,1803.0,1717.0,1779.0,1753.0,1499.0,1763.0,1737.0,59.88890838623047,-55.41815185546875,-2.0528757572174072,Left
2107.19921875,23191,1,1751.0,1787.0,1769.0,1769.0,1751.0,1563.0,1769.0,1879.0,59.88890838623047,-55.41815185546875,-2.0528757572174072,Left
2109.19921875,23191,1,1763.0,1679.0,1767.0,1747.0,1694.0,1555.0,1767.0,1929.0,59.88890838623047,-55.41815185546875,-2.0528757572174072,Left
2111.19921875,23191,1,1766.0,1767.0,1763.0,1755.0,1764.0,1625.0,1757.0,1863.0,59.88890838623047,-55.41815185546875,-2.0528757572174072,Left
2113.19921875,23191,1,1764.0,1834.0,1767.0,1765.0,1778.0,1928.0,1765.0,1851.0,68.79170989990234,-56.27619171142578,-2.8405959606170654,Left
2117.979248046875,23192,1,1751.0,1776.0,1749.0,1790.0,1707.0,2008.0,1768.0,1991.0,68.79170989990234,-56.27619171142578,-2.8405959606170654,Left
2119.979248046875,23192,1,1753.0,1754.0,1748.0,1813.0,1775.0,1807.0,1770.0,1849.0,68.79170989990234,-56.27619171142578,-2.8405959606170654,Left
2121.979248046875,23192,1,1751.0,1763.0,1746.0,1767.0,1723.0,1891.0,1759.0,1721.0,68.79170989990234,-56.27619171142578,-2.8405959606170654,Left
2123.979248046875,23192,1,1763.0,1735.0,1768.0,1691.0,1733.0,1863.0,1771.0,1747.0,68.79170989990234,-56.27619171142578,-2.8405959606170654,Left
2125.979248046875,23192,1,1765.0,1747.0,1775.0,1741.0,1753.0,1573.0,1763.0,1701.0,68.79170989990234,-56.27619171142578,-2.8405959606170654,Left
2123.120361328125,23193,1,1752.0,1764.0,1775.0,1754.0,1763.0,1369.0,1749.0,1711.0,68.79170989990234,-56.27619171142578,-2.8405959606170654,Left
2125.120361328125,23193,1,1765.0,1797.0,1745.0,1799.0,1749.0,1595.0,1739.0,1725.0,68.79170989990234,-56.27619171142578,-2.8405959606170654,Left
2127.120361328125,23193,1,1737.0,1803.0,1756.0,1737.0,1763.0,1555.0,1767.0,1781.0,68.79170989990234,-56.27619171142578,-2.8405959606170654,Left
2129.120361328125,23193,1,1756.0,1749.0,1763.0,1756.0,1753.0,1669.0,1749.0,1751.0,68.79170989990234,-56.27619171142578,-2.8405959606170654,Left
2131.120361328125,23193,1,1765.0,1657.0,1759.0,1717.0,1725.0,1976.0,1770.0,1660.0,68.79170989990234,-56.27619171142578,-2.8405959606170654,Left
2132.229248046875,23194,1,1759.0,1719.0,1757.0,1747.0,1747.0,2018.0,1766.0,1560.0,68.79170989990234,-56.27619171142578,-2.8405959606170654,Left
2134.229248046875,23194,1,1757.0,1766.0,1751.0,1756.0,1749.0,1821.0,1751.0,1785.0,68.79170989990234,-56.27619171142578,-2.8405959606170654,Left
2136.229248046875,23194,1,1757.0,1755.0,1763.0,1771.0,1741.0,1879.0,1752.0,1783.0,68.79170989990234,-56.27619171142578,-2.8405959606170654,Left
2138.229248046875,23194,1,1752.0,1769.0,1755.0,1785.0,1757.0,1871.0,1767.0,1751.0,68.79170989990234,-56.27619171142578,-2.8405959606170654,Left
2140.229248046875,23194,1,1763.0,1789.0,1762.0,1815.0,1747.0,1590.0,1764.0,1738.0,68.79170989990234,-56.27619171142578,-2.8405959606170654,Left
2147.155029296875,23195,1,1749.0,1783.0,1755.0,1791.0,1755.0,1431.0,1754.0,1816.0,68.79170989990234,-56.27619171142578,-2.8405959606170654,Left
2149.155029296875,23195,1,1753.0,1763.0,1769.0,1765.0,1687.0,1629.0,1765.0,1803.0,68.79170989990234,-56.27619171142578,-2.8405959606170654,Left
2151.155029296875,23195,1,1762.0,1723.0,1749.0,1717.0,1735.0,1599.0,1763.0,1739.0,68.79170989990234,-56.27619171142578,-2.8405959606170654,Left
2153.155029296875,23195,1,1764.0,1703.0,1759.0,1740.0,1753.0,1544.0,1747.0,1719.0,68.79170989990234,-56.27619171142578,-2.8405959606170654,Left
2155.155029296875,23195,1,1751.0,1772.0,1747.0,1765.0,1740.0,1941.0,1763.0,1759.0,68.79170989990234,-56.27619171142578,-2.8405959606170654,Left
2155.213134765625,23196,1,1751.0,1749.0,1767.0,1763.0,1752.0,2018.0,1769.0,1847.0,68.79170989990234,-56.27619171142578,-2.8405959606170654,Left
2157.213134765625,23196,1,1762.0,1775.0,1774.0,1799.0,1771.0,1881.0,1763.0,1775.0,68.79170989990234,-56.27619171142578,-2.8405959606170654,Left
2159.213134765625,23196,1,1765.0,1772.0,1747.0,1767.0,1745.0,1955.0,1757.0,1801.0,68.79170989990234,-56.27619171142578,-2.8405959606170654,Left
2161.213134765625,23196,1,1751.0,1758.0,1739.0,1751.0,1759.0,1999.0,1769.0,1789.0,68.79170989990234,-56.27619171142578,-2.8405959606170654,Left
2163.213134765625,23196,1,1765.0,1763.0,1733.0,1757.0,1741.0,1645.0,1763.0,1613.0,68.79170989990234,-56.27619171142578,-2.8405959606170654,Left
2165.273193359375,23197,1,1763.0,1751.0,1779.0,1763.0,1725.0,1385.0,1747.0,1689.0,68.79170989990234,-56.27619171142578,-2.8405959606170654,Left
2167.273193359375,23197,1,1765.0,1741.0,1721.0,1753.0,1727.0,1709.0,1741.0,1478.0,68.79170989990234,-56.27619171142578,-2.8405959606170654,Left
2169.273193359375,23197,1,1751.0,1749.0,1779.0,1783.0,1737.0,1560.0,1767.0,1647.0,68.79170989990234,-56.27619171142578,-2.8405959606170654,Left
2171.273193359375,23197,1,1765.0,1740.0,1843.0,1749.0,1765.0,1654.0,1767.0,1587.0,68.79170989990234,-56.27619171142578,-2.8405959606170654,Left
2173.273193359375,23197,1,1766.0,1751.0,1789.0,1753.0,1759.0,1917.0,1763.0,1655.0,68.79170989990234,-56.27619171142578,-2.8405959606170654,Left
2172.093994140625,23198,1,1755.0,1769.0,1771.0,1762.0,1753.0,1870.0,1751.0,1892.0,68.79170989990234,-56.27619171142578,-2.8405959606170654,Left
2174.093994140625,23198,1,1761.0,1725.0,1739.0,1719.0,1741.0,1812.0,1775.0,1837.0,68.79170989990234,-56.27619171142578,-2.8405959606170654,Left
2176.093994140625,23198,1,1763.0,1742.0,1754.0,1755.0,1766.0,1789.0,1768.0,1829.0,69.07866668701172,-56.431522369384766,-2.0165927410125732,Left
2178.093994140625,23198,1,1749.0,1787.0,1765.0,1771.0,1767.0,1764.0,1763.0,1685.0,69.07866668701172,-56.431522369384766,-2.0165927410125732,Left
2180.093994140625,23198,1,1765.0,1771.0,1728.0,1767.0,1737.0,1383.0,1768.0,1623.0,69.07866668701172,-56.431522369384766,-2.0165927410125732,Left
2184.01904296875,23199,1,1762.0,1769.0,1749.0,1811.0,1735.0,1331.0,1764.0,1717.0,69.07866668701172,-56.431522369384766,-2.0165927410125732,Left
2186.01904296875,23199,1,1764.0,1811.0,1715.0,1773.0,1767.0,1493.0,1769.0,1699.0,69.07866668701172,-56.431522369384766,-2.0165927410125732,Left
2188.01904296875,23199,1,1751.0,1712.0,1753.0,1711.0,1741.0,1486.0,1763.0,1765.0,69.07866668701172,-56.431522369384766,-2.0165927410125732,Left
2190.01904296875,23199,1,1765.0,1735.0,1767.0,1753.0,1757.0,1583.0,1761.0,1762.0,69.07866668701172,-56.431522369384766,-2.0165927410125732,Left
2192.01904296875,23199,1,1756.0,1751.0,1751.0,1755.0,1759.0,2024.0,1767.0,1719.0,69.07866668701172,-56.431522369384766,-2.0165927410125732,Left
2194.794189453125,23200,1,1756.0,1757.0,1771.0,1758.0,1712.0,2277.0,1762.0,1726.0,69.07866668701172,-56.431522369384766,-2.0165927410125732,Left
2196.794189453125,23200,1,1766.0,1733.0,1759.0,1757.0,1781.0,2019.0,1759.0,1773.0,69.07866668701172,-56.431522369384766,-2.0165927410125732,Left
2198.794189453125,23200,1,1752.0,1771.0,1757.0,1783.0,1779.0,2031.0,1767.0,1816.0,69.07866668701172,-56.431522369384766,-2.0165927410125732,Left
2200.794189453125,23200,1,1765.0,1785.0,1757.0,1762.0,1745.0,1929.0,1765.0,1807.0,69.07866668701172,-56.431522369384766,-2.0165927410125732,Left
2202.794189453125,23200,1,1757.0,1755.0,1741.0,1757.0,1765.0,1573.0,1771.0,1833.0,69.07866668701172,-56.431522369384766,-2.0165927410125732,Left
2209.360107421875,23201,1,1762.0,1719.0,1752.0,1735.0,1757.0,1408.0,1759.0,1927.0,69.07866668701172,-56.431522369384766,-2.0165927410125732,Left
2211.360107421875,23201,1,1754.0,1755.0,1767.0,1753.0,1765.0,1485.0,1751.0,1831.0,69.07866668701172,-56.431522369384766,-2.0165927410125732,Left
2213.360107421875,23201,1,1759.0,1767.0,1766.0,1771.0,1726.0,1593.0,1755.0,1893.0,69.07866668701172,-56.431522369384766,-2.0165927410125732,Left
2215.360107421875,23201,1,1763.0,1720.0,1754.0,1772.0,1748.0,1656.0,1769.0,1931.0,69.07866668701172,-56.431522369384766,-2.0165927410125732,Left
2217.360107421875,23201,1,1750.0,1749.0,1735.0,1737.0,1755.0,2075.0,1748.0,1800.0,69.07866668701172,-56.431522369384766,-2.0165927410125732,Left
2211.9599609375,23202,1,1758.0,1747.0,1743.0,1763.0,1752.0,2079.0,1759.0,1839.0,69.07866668701172,-56.431522369384766,-2.0165927410125732,Left
2213.9599609375,23202,1,1765.0,1775.0,1759.0,1775.0,1755.0,2007.0,1768.0,1691.0,69.07866668701172,-56.431522369384766,-2.0165927410125732,Left
2215.9599609375,23202,1,1759.0,1786.0,1768.0,1707.0,1763.0,2001.0,1767.0,1845.0,69.07866668701172,-56.431522369384766,-2.0165927410125732,Left
2217.9599609375,23202,1,1753.0,1779.0,1749.0,1759.0,1768.0,1891.0,1767.0,1797.0,69.07866668701172,-56.431522369384766,-2.0165927410125732,Left
2219.9599609375,23202,1,1765.0,1740.0,1741.0,1765.0,1741.0,1571.0,1756.0,1771.0,69.07866668701172,-56.431522369384766,-2.0165927410125732,Left
2224.97509765625,23203,1,1751.0,1725.0,1749.0,1721.0,1742.0,1461.0,1757.0,1701.0,69.07866668701172,-56.431522369384766,-2.0165927410125732,Left
2226.97509765625,23203,1,1757.0,1765.0,1751.0,1779.0,1765.0,1719.0,1747.0,1691.0,69.07866668701172,-56.431522369384766,-2.0165927410125732,Left
2228.97509765625,23203,1,1751.0,1767.0,1739.0,1724.0,1753.0,1699.0,1763.0,1669.0,69.07866668701172,-56.431522369384766,-2.0165927410125732,Left
2230.97509765625,23203,1,1765.0,1783.0,1759.0,1781.0,1742.0,1688.0,1770.0,1652.0,69.07866668701172,-56.431522369384766,-2.0165927410125732,Left
2232.97509765625,23203,1,1765.0,1755.0,1771.0,1737.0,1763.0,1965.0,1767.0,1597.0,69.07866668701172,-56.431522369384766,-2.0165927410125732,Left
2231.787109375,23204,1,1764.0,1725.0,1761.0,1752.0,1757.0,2168.0,1751.0,1709.0,69.07866668701172,-56.431522369384766,-2.0165927410125732,Left
2233.787109375,23204,1,1765.0,1709.0,1739.0,1727.0,1724.0,1961.0,1751.0,1621.0,69.07866668701172,-56.431522369384766,-2.0165927410125732,Left
2235.787109375,23204,1,1764.0,1779.0,1767.0,1784.0,1747.0,1754.0,1765.0,1772.0,69.07866668701172,-56.431522369384766,-2.0165927410125732,Left
2237.787109375,23204,1,1752.0,1746.0,1749.0,1767.0,1755.0,1711.0,1751.0,1943.0,69.07866668701172,-56.431522369384766,-2.0165927410125732,Left
2239.787109375,23204,1,1765.0,1757.0,1749.0,1789.0,1747.0,1437.0,1768.0,1944.0,69.07866668701172,-56.431522369384766,-2.0165927410125732,Left
2245.9111328125,23205,1,1765.0,1749.0,1753.0,1769.0,1757.0,1397.0,1768.0,1886.0,67.74750518798828,-56.63005065917969,-1.777900218963623,Left
2247.9111328125,23205,1,1763.0,1772.0,1787.0,1767.0,1743.0,1599.0,1768.0,1715.0,67.74750518798828,-56.63005065917969,-1.777900218963623,Left
2249.9111328125,23205,1,1763.0,1783.0,1763.0,1783.0,1766.0,1590.0,1763.0,1706.0,67.74750518798828,-56.63005065917969,-1.777900218963623,Left
2251.9111328125,23205,1,1762.0,1753.0,1755.0,1741.0,1759.0,1582.0,1519.0,1615.0,67.74750518798828,-56.63005065917969,-1.777900218963623,Left
2253.9111328125,23205,1,1755.0,1741.0,1766.0,1721.0,1752.0,2010.0,1147.0,1743.0,67.74750518798828,-56.63005065917969,-1.777900218963623,Left
2251.494140625,23206,1,1752.0,1758.0,1758.0,1750.0,1766.0,2073.0,1237.0,1708.0,67.74750518798828,-56.63005065917969,-1.777900218963623,Left
2253.494140625,23206,1,1745.0,1753.0,1710.0,1675.0,1753.0,1848.0,1469.0,1596.0,67.74750518798828,-56.63005065917969,-1.777900218963623,Left
2255.494140625,23206,1,1757.0,1751.0,1769.0,1769.0,1742.0,1902.0,1916.0,1677.0,67.74750518798828,-56.63005065917969,-1.777900218963623,Left
2257.494140625,23206,1,1759.0,1770.0,1771.0,1782.0,1768.0,1902.0,2319.0,1732.0,67.74750518798828,-56.63005065917969,-1.777900218963623,Left
2259.494140625,23206,1,1751.0,1778.0,1756.0,1767.0,1653.0,1567.0,2425.0,1839.0,67.74750518798828,-56.63005065917969,-1.777900218963623,Left
2263.916015625,23207,1,1763.0,1735.0,1753.0,1769.0,1767.0,1436.0,2207.0,1843.0,67.74750518798828,-56.63005065917969,-1.777900218963623,Left
2265.916015625,23207,1,1764.0,1775.0,1728.0,1766.0,1768.0,1545.0,2079.0,1903.0,67.74750518798828,-56.63005065917969,-1.777900218963623,Left
2267.916015625,23207,1,1765.0,1761.0,1767.0,1746.0,1743.0,1660.0,1727.0,1877.0,67.74750518798828,-56.63005065917969,-1.777900218963623,Left
2269.916015625,23207,1,1752.0,1753.0,1767.0,1752.0,1719.0,1725.0,1297.0,1815.0,67.74750518798828,-56.63005065917969,-1.777900218963623,Left
2271.916015625,23207,1,1765.0,1790.0,1743.0,1751.0,1749.0,2137.0,1319.0,1895.0,67.74750518798828,-56.63005065917969,-1.777900218963623,Left
2274.8642578125,23208,1,1761.0,1764.0,1739.0,1787.0,1737.0,2143.0,361.0,1894.0,67.74750518798828,-56.63005065917969,-1.777900218963623,Left
2276.8642578125,23208,1,1750.0,1753.0,1755.0,1771.0,1734.0,2087.0,297.0,1853.0,67.74750518798828,-56.63005065917969,-1.777900218963623,Left
2278.8642578125,23208,1,1759.0,1703.0,1737.0,1733.0,1753.0,1892.0,660.0,1864.0,67.74750518798828,-56.63005065917969,-1.777900218963623,Left
2280.8642578125,23208,1,1767.0,1755.0,1773.0,1751.0,1737.0,1829.0,888.0,1703.0,67.74750518798828,-56.63005065917969,-1.777900218963623,Left
2282.8642578125,23208,1,1753.0,1751.0,1764.0,1747.0,1739.0,1496.0,1044.0,1661.0,67.74750518798828,-56.63005065917969,-1.777900218963623,Left
2282.10302734375,23209,1,1765.0,1753.0,1762.0,1767.0,1743.0,1395.0,1211.0,1692.0,67.74750518798828,-56.63005065917969,-1.777900218963623,Left
2284.10302734375,23209,1,1733.0,1751.0,1762.0,1743.0,1770.0,1405.0,1577.0,1634.0,67.74750518798828,-56.63005065917969,-1.777900218963623,Left
2286.10302734375,23209,1,1757.0,1755.0,1765.0,1787.0,1752.0,1707.0,1675.0,1498.0,67.74750518798828,-56.63005065917969,-1.777900218963623,Left
2288.10302734375,23209,1,1763.0,1772.0,1711.0,1775.0,1751.0,1745.0,1781.0,1637.0,67.74750518798828,-56.63005065917969,-1.777900218963623,Left
2290.10302734375,23209,1,1753.0,1787.0,1757.0,1749.0,1743.0,2069.0,2379.0,1700.0,67.74750518798828,-56.63005065917969,-1.777900218963623,Left
2295.741943359375,23210,1,1756.0,1695.0,1785.0,1735.0,1743.0,2313.0,3029.0,1862.0,67.74750518798828,-56.63005065917969,-1.777900218963623,Left
2297.741943359375,23210,1,1755.0,1747.0,1770.0,1755.0,1747.0,1939.0,3389.0,1848.0,67.74750518798828,-56.63005065917969,-1.777900218963623,Left
2299.741943359375,23210,1,1763.0,1781.0,1770.0,1789.0,1751.0,1891.0,3577.0,1851.0,67.74750518798828,-56.63005065917969,-1.777900218963623,Left
2301.741943359375,23210,1,1761.0,1782.0,1751.0,1727.0,1773.0,1836.0,3605.0,1727.0,67.74750518798828,-56.63005065917969,-1.777900218963623,Left
2303.741943359375,23210,1,1759.0,1747.0,1755.0,1811.0,1747.0,1531.0,2996.0,1847.0,67.74750518798828,-56.63005065917969,-1.777900218963623,Left
2307.05224609375,23211,1,1763.0,1737.0,1757.0,1750.0,1737.0,1449.0,0.0,1716.0,67.74750518798828,-56.63005065917969,-1.777900218963623,Left
2309.05224609375,23211,1,1751.0,1757.0,1738.0,1771.0,1737.0,1653.0,215.0,1804.0,67.74750518798828,-56.63005065917969,-1.777900218963623,Left
2311.05224609375,23211,1,1767.0,1767.0,1765.0,1717.0,1765.0,1674.0,590.0,1817.0,67.7140121459961,-56.365638732910156,-1.7238787412643433,Left
2313.05224609375,23211,1,1761.0,1707.0,1747.0,1705.0,1750.0,1623.0,831.0,1883.0,67.7140121459961,-56.365638732910156,-1.7238787412643433,Left
2315.05224609375,23211,1,1763.0,1763.0,1752.0,1781.0,1774.0,1896.0,581.0,1763.0,67.7140121459961,-56.365638732910156,-1.7238787412643433,Left
2353.711181640625,23212,1,1758.0,1837.0,1751.0,1783.0,1791.0,1989.0,663.0,1591.0,67.7140121459961,-56.365638732910156,-1.7238787412643433,Left
2355.711181640625,23212,1,1766.0,1715.0,1773.0,1753.0,1723.0,1769.0,0.0,1679.0,67.7140121459961,-56.365638732910156,-1.7238787412643433,Left
2357.711181640625,23212,1,1765.0,1723.0,1770.0,1758.0,1719.0,1771.0,0.0,1661.0,67.7140121459961,-56.365638732910156,-1.7238787412643433,Left
2359.711181640625,23212,1,1759.0,1746.0,1743.0,1720.0,1766.0,1865.0,0.0,1725.0,67.7140121459961,-56.365638732910156,-1.7238787412643433,Left
2361.711181640625,23212,1,1750.0,1773.0,1752.0,1779.0,1769.0,1498.0,985.0,1631.0,67.7140121459961,-56.365638732910156,-1.7238787412643433,Left
2355.55224609375,23213,1,1750.0,1779.0,1769.0,1747.0,1751.0,1566.0,1997.0,1565.0,67.7140121459961,-56.365638732910156,-1.7238787412643433,Left
2357.55224609375,23213,1,1759.0,1747.0,1765.0,1739.0,1736.0,1662.0,2705.0,1597.0,67.7140121459961,-56.365638732910156,-1.7238787412643433,Left
2359.55224609375,23213,1,1767.0,1763.0,1742.0,1763.0,1751.0,1670.0,3435.0,1755.0,67.7140121459961,-56.365638732910156,-1.7238787412643433,Left
2361.55224609375,23213,1,1763.0,1742.0,1751.0,1791.0,1750.0,1689.0,3813.0,1784.0,67.7140121459961,-56.365638732910156,-1.7238787412643433,Left
2363.55224609375,23213,1,1764.0,1767.0,1737.0,1758.0,1756.0,1962.0,3839.0,1799.0,67.7140121459961,-56.365638732910156,-1.7238787412643433,Left
2356.1259765625,23214,1,1750.0,1761.0,1755.0,1763.0,1735.0,2066.0,3830.0,1742.0,67.7140121459961,-56.365638732910156,-1.7238787412643433,Left
2358.1259765625,23214,1,1753.0,1765.0,1755.0,1771.0,1755.0,1908.0,3849.0,1623.0,67.7140121459961,-56.365638732910156,-1.7238787412643433,Left
2360.1259765625,23214,1,1765.0,1771.0,1781.0,1787.0,1750.0,1896.0,3847.0,1699.0,67.7140121459961,-56.365638732910156,-1.7238787412643433,Left
2362.1259765625,23214,1,1759.0,1769.0,1727.0,1775.0,1769.0,1875.0,3814.0,1687.0,67.7140121459961,-56.365638732910156,-1.7238787412643433,Left
2364.1259765625,23214,1,1766.0,1736.0,1772.0,1765.0,1765.0,1594.0,2328.0,1635.0,67.7140121459961,-56.365638732910156,-1.7238787412643433,Left
2356.38525390625,23215,1,1762.0,1721.0,1789.0,1711.0,1756.0,1505.0,974.0,1739.0,67.7140121459961,-56.365638732910156,-1.7238787412643433,Left
2358.38525390625,23215,1,1766.0,1738.0,1763.0,1757.0,1750.0,1560.0,1593.0,1715.0,67.7140121459961,-56.365638732910156,-1.7238787412643433,Left
2360.38525390625,23215,1,1767.0,1758.0,1775.0,1766.0,1746.0,1565.0,1891.0,1827.0,67.7140121459961,-56.365638732910156,-1.7238787412643433,Left
2362.38525390625,23215,1,1756.0,1775.0,1768.0,1771.0,1767.0,1645.0,1596.0,1757.0,67.7140121459961,-56.365638732910156,-1.7238787412643433,Left
2364.38525390625,23215,1,1756.0,1763.0,1747.0,1739.0,1747.0,2038.0,1807.0,1783.0,67.7140121459961,-56.365638732910156,-1.7238787412643433,Left
2356.93212890625,23216,1,1759.0,1762.0,1733.0,1806.0,1741.0,2085.0,2437.0,1785.0,67.7140121459961,-56.365638732910156,-1.7238787412643433,Left
2358.93212890625,23216,1,1749.0,1780.0,1707.0,1764.0,1753.0,1871.0,2606.0,1741.0,67.7140121459961,-56.365638732910156,-1.7238787412643433,Left
2360.93212890625,23216,1,1751.0,1751.0,1749.0,1765.0,1765.0,1849.0,1403.0,1754.0,67.7140121459961,-56.365638732910156,-1.7238787412643433,Left
2362.93212890625,23216,1,1751.0,1749.0,1774.0,1749.0,1747.0,1837.0,1875.0,1782.0,67.7140121459961,-56.365638732910156,-1.7238787412643433,Left
2364.93212890625,23216,1,1759.0,1738.0,1773.0,1733.0,1756.0,1541.0,1887.0,1682.0,67.7140121459961,-56.365638732910156,-1.7238787412643433,Left
2365.254150390625,23217,1,1766.0,1705.0,1755.0,1733.0,1740.0,1454.0,1591.0,1735.0,67.7140121459961,-56.365638732910156,-1.7238787412643433,Left
2367.254150390625,23217,1,1757.0,1780.0,1741.0,1759.0,1741.0,1550.0,2007.0,1704.0,67.7140121459961,-56.365638732910156,-1.7238787412643433,Left
2369.254150390625,23217,1,1751.0,1799.0,1737.0,1789.0,1754.0,1631.0,2207.0,1699.0,67.7140121459961,-56.365638732910156,-1.7238787412643433,Left
2371.254150390625,23217,1,1765.0,1791.0,1743.0,1740.0,1757.0,1564.0,0.0,1817.0,67.7140121459961,-56.365638732910156,-1.7238787412643433,Left
2373.254150390625,23217,1,1765.0,1748.0,1747.0,1759.0,1741.0,1899.0,0.0,1847.0,68.50677490234375,-56.41310119628906,-1.7885702848434448,Left
2371.73095703125,23218,1,1761.0,1694.0,1737.0,1733.0,1748.0,2013.0,0.0,1895.0,68.50677490234375,-56.41310119628906,-1.7885702848434448,Left
2373.73095703125,23218,1,1757.0,1753.0,1750.0,1785.0,1741.0,1928.0,0.0,1805.0,68.50677490234375,-56.41310119628906,-1.7885702848434448,Left
2375.73095703125,23218,1,1767.0,1797.0,1767.0,1757.0,1763.0,1839.0,495.0,1743.0,68.50677490234375,-56.41310119628906,-1.7885702848434448,Left
2377.73095703125,23218,1,1755.0,1767.0,1781.0,1786.0,1723.0,1786.0,1579.0,1734.0,68.50677490234375,-56.41310119628906,-1.7885702848434448,Left
2379.73095703125,23218,1,1763.0,1757.0,1781.0,1801.0,1739.0,1561.0,2392.0,1733.0,68.50677490234375,-56.41310119628906,-1.7885702848434448,Left
2383.88525390625,23219,1,1762.0,1783.0,1708.0,1767.0,1767.0,1580.0,2787.0,1831.0,68.50677490234375,-56.41310119628906,-1.7885702848434448,Left
2385.88525390625,23219,1,1763.0,1769.0,1747.0,1773.0,1775.0,1758.0,2494.0,1803.0,68.50677490234375,-56.41310119628906,-1.7885702848434448,Left
2387.88525390625,23219,1,1763.0,1724.0,1779.0,1749.0,1726.0,1704.0,2180.0,1849.0,68.50677490234375,-56.41310119628906,-1.7885702848434448,Left
2389.88525390625,23219,1,1755.0,1748.0,1789.0,1765.0,1741.0,1674.0,0.0,1847.0,68.50677490234375,-56.41310119628906,-1.7885702848434448,Left
2391.88525390625,23219,1,1763.0,1799.0,1769.0,1753.0,1768.0,2075.0,0.0,1852.0,68.50677490234375,-56.41310119628906,-1.7885702848434448,Left
2481.363037109375,23220,1,1763.0,1759.0,1728.0,1767.0,1721.0,2087.0,0.0,1587.0,68.50677490234375,-56.41310119628906,-1.7885702848434448,Left
2483.363037109375,23220,1,1751.0,1757.0,1787.0,1739.0,1758.0,1928.0,0.0,1695.0,68.50677490234375,-56.41310119628906,-1.7885702848434448,Left
2485.363037109375,23220,1,1763.0,1702.0,1765.0,1725.0,1749.0,1827.0,0.0,1647.0,68.50677490234375,-56.41310119628906,-1.7885702848434448,Left
2487.363037109375,23220,1,1751.0,1746.0,1743.0,1719.0,1737.0,1879.0,0.0,1719.0,68.50677490234375,-56.41310119628906,-1.7885702848434448,Left
2489.363037109375,23220,1,1751.0,1803.0,1740.0,1788.0,1757.0,1587.0,0.0,1775.0,68.50677490234375,-56.41310119628906,-1.7885702848434448,Left
2481.89013671875,23221,1,1757.0,1743.0,1725.0,1727.0,1773.0,1459.0,0.0,1805.0,68.50677490234375,-56.41310119628906,-1.7885702848434448,Left
2483.89013671875,23221,1,1763.0,1695.0,1753.0,1747.0,1743.0,1675.0,0.0,1770.0,68.50677490234375,-56.41310119628906,-1.7885702848434448,Left
2485.89013671875,23221,1,1756.0,1785.0,1754.0,1753.0,1751.0,1604.0,0.0,1707.0,68.50677490234375,-56.41310119628906,-1.7885702848434448,Left
2487.89013671875,23221,1,1765.0,1839.0,1754.0,1765.0,1759.0,1627.0,0.0,1796.0,68.50677490234375,-56.41310119628906,-1.7885702848434448,Left
2489.89013671875,23221,1,1764.0,1768.0,1750.0,1779.0,1733.0,1959.0,0.0,1799.0,68.50677490234375,-56.41310119628906,-1.7885702848434448,Left
2482.31494140625,23222,1,1763.0,1661.0,1753.0,1757.0,1739.0,1980.0,0.0,1694.0,68.50677490234375,-56.41310119628906,-1.7885702848434448,Left
2484.31494140625,23222,1,1765.0,1748.0,1765.0,1775.0,1769.0,1835.0,139.0,1685.0,68.50677490234375,-56.41310119628906,-1.7885702848434448,Left
2486.31494140625,23222,1,1752.0,1791.0,1758.0,1741.0,1735.0,1763.0,435.0,1711.0,68.50677490234375,-56.41310119628906,-1.7885702848434448,Left
2488.31494140625,23222,1,1751.0,1759.0,1769.0,1725.0,1782.0,1763.0,651.0,1577.0,68.50677490234375,-56.41310119628906,-1.7885702848434448,Left
2490.31494140625,23222,1,1747.0,1688.0,1749.0,1723.0,1757.0,1315.0,867.0,1775.0,68.50677490234375,-56.41310119628906,-1.7885702848434448,Left
2482.776123046875,23223,1,1764.0,1757.0,1767.0,1747.0,1759.0,1356.0,1007.0,1679.0,68.50677490234375,-56.41310119628906,-1.7885702848434448,Left
2484.776123046875,23223,1,1763.0,1774.0,1763.0,1773.0,1737.0,1445.0,1148.0,1709.0,68.50677490234375,-56.41310119628906,-1.7885702848434448,Left
2486.776123046875,23223,1,1764.0,1764.0,1769.0,1755.0,1735.0,1321.0,1251.0,1704.0,68.50677490234375,-56.41310119628906,-1.7885702848434448,Left
2488.776123046875,23223,1,1764.0,1763.0,1746.0,1764.0,1767.0,1443.0,1339.0,1786.0,68.50677490234375,-56.41310119628906,-1.7885702848434448,Left
2490.776123046875,23223,1,1766.0,1752.0,1735.0,1772.0,1767.0,1933.0,1417.0,1811.0,68.50677490234375,-56.41310119628906,-1.7885702848434448,Left
2483.3212890625,23224,1,1763.0,1746.0,1692.0,1748.0,1749.0,1989.0,1461.0,1637.0,68.50677490234375,-56.41310119628906,-1.7885702848434448,Left
2485.3212890625,23224,1,1763.0,1759.0,1763.0,1723.0,1752.0,1867.0,1524.0,1635.0,68.50677490234375,-56.41310119628906,-1.7885702848434448,Left
2487.3212890625,23224,1,1749.0,1739.0,1755.0,1756.0,1749.0,1753.0,1567.0,1733.0,69.29409790039062,-56.59552764892578,-1.6232361793518066,Left
2489.3212890625,23224,1,1736.0,1702.0,1775.0,1695.0,1749.0,1810.0,1595.0,1852.0,69.29409790039062,-56.59552764892578,-1.6232361793518066,Left
2491.3212890625,23224,1,1764.0,1771.0,1787.0,1791.0,1751.0,1479.0,1623.0,1785.0,69.29409790039062,-56.59552764892578,-1.6232361793518066,Left
2483.93408203125,23225,1,1750.0,1752.0,1747.0,1735.0,1765.0,1268.0,1643.0,1867.0,69.29409790039062,-56.59552764892578,-1.6232361793518066,Left
2485.93408203125,23225,1,1743.0,1801.0,1759.0,1733.0,1755.0,1529.0,1669.0,1788.0,69.29409790039062,-56.59552764892578,-1.6232361793518066,Left
2487.93408203125,23225,1,1747.0,1695.0,1707.0,1726.0,1763.0,1351.0,1661.0,1775.0,69.29409790039062,-56.59552764892578,-1.6232361793518066,Left
2489.93408203125,23225,1,1763.0,1709.0,1743.0,1727.0,1733.0,1576.0,1695.0,1717.0,69.29409790039062,-56.59552764892578,-1.6232361793518066,Left
2491.93408203125,23225,1,1751.0,1771.0,1753.0,1772.0,1757.0,1946.0,1689.0,1805.0,69.29409790039062,-56.59552764892578,-1.6232361793518066,Left
2484.72509765625,23226,1,1750.0,1786.0,1759.0,1775.0,1742.0,2175.0,1707.0,1918.0,69.29409790039062,-56.59552764892578,-1.6232361793518066,Left
2486.72509765625,23226,1,1763.0,1771.0,1779.0,1802.0,1765.0,1971.0,1711.0,1783.0,69.29409790039062,-56.59552764892578,-1.6232361793518066,Left
2488.72509765625,23226,1,1761.0,1755.0,1751.0,1769.0,1757.0,1925.0,1720.0,1639.0,69.29409790039062,-56.59552764892578,-1.6232361793518066,Left
2490.72509765625,23226,1,1759.0,1725.0,1767.0,1747.0,1725.0,1869.0,1712.0,1699.0,69.29409790039062,-56.59552764892578,-1.6232361793518066,Left
2492.72509765625,23226,1,1759.0,1741.0,1736.0,1759.0,1749.0,1432.0,1737.0,1663.0,69.29409790039062,-56.59552764892578,-1.6232361793518066,Left
2485.215087890625,23227,1,1751.0,1769.0,1741.0,1759.0,1755.0,1431.0,1738.0,1573.0,69.29409790039062,-56.59552764892578,-1.6232361793518066,Left
2487.215087890625,23227,1,1759.0,1774.0,1759.0,1765.0,1755.0,1664.0,1743.0,1755.0,69.29409790039062,-56.59552764892578,-1.6232361793518066,Left
2489.215087890625,23227,1,1755.0,1769.0,1781.0,1763.0,1746.0,1786.0,1727.0,1763.0,69.29409790039062,-56.59552764892578,-1.6232361793518066,Left
2491.215087890625,23227,1,1757.0,1757.0,1769.0,1751.0,1745.0,1658.0,1741.0,1846.0,69.29409790039062,-56.59552764892578,-1.6232361793518066,Left
2493.215087890625,23227,1,1749.0,1775.0,1765.0,1751.0,1743.0,2083.0,1727.0,1696.0,69.29409790039062,-56.59552764892578,-1.6232361793518066,Left
2485.701416015625,23228,1,1768.0,1706.0,1765.0,1759.0,1716.0,2187.0,1751.0,1747.0,69.29409790039062,-56.59552764892578,-1.6232361793518066,Left
2487.701416015625,23228,1,1752.0,1757.0,1765.0,1773.0,1747.0,2019.0,1747.0,1839.0,69.29409790039062,-56.59552764892578,-1.6232361793518066,Left
2489.701416015625,23228,1,1759.0,1809.0,1749.0,1775.0,1749.0,1919.0,1752.0,1939.0,69.29409790039062,-56.59552764892578,-1.6232361793518066,Left
2491.701416015625,23228,1,1751.0,1745.0,1737.0,1741.0,1725.0,1816.0,1753.0,1836.0,69.29409790039062,-56.59552764892578,-1.6232361793518066,Left
2493.701416015625,23228,1,1763.0,1699.0,1770.0,1766.0,1763.0,1495.0,1756.0,1837.0,69.29409790039062,-56.59552764892578,-1.6232361793518066,Left
2486.05908203125,23229,1,1765.0,1768.0,1769.0,1765.0,1750.0,1417.0,1755.0,1733.0,69.29409790039062,-56.59552764892578,-1.6232361793518066,Left
2488.05908203125,23229,1,1763.0,1779.0,1725.0,1775.0,1773.0,1497.0,1738.0,1675.0,69.29409790039062,-56.59552764892578,-1.6232361793518066,Left
2490.05908203125,23229,1,1759.0,1745.0,1765.0,1746.0,1739.0,1419.0,1750.0,1655.0,69.29409790039062,-56.59552764892578,-1.6232361793518066,Left
2492.05908203125,23229,1,1716.0,1709.0,1759.0,1675.0,1753.0,1379.0,1758.0,1627.0,69.29409790039062,-56.59552764892578,-1.6232361793518066,Left
2494.05908203125,23229,1,1763.0,1785.0,1747.0,1807.0,1765.0,1882.0,1767.0,1693.0,69.29409790039062,-56.59552764892578,-1.6232361793518066,Left
2491.5283203125,23230,1,1762.0,1767.0,1749.0,1807.0,1749.0,1927.0,1743.0,1683.0,69.29409790039062,-56.59552764892578,-1.6232361793518066,Left
2493.5283203125,23230,1,1763.0,1839.0,1755.0,1751.0,1762.0,1861.0,1747.0,1752.0,69.29409790039062,-56.59552764892578,-1.6232361793518066,Left
2495.5283203125,23230,1,1759.0,1707.0,1738.0,1707.0,1757.0,1855.0,1753.0,1812.0,69.29409790039062,-56.59552764892578,-1.6232361793518066,Left
2497.5283203125,23230,1,1763.0,1702.0,1750.0,1675.0,1736.0,1836.0,1752.0,1787.0,69.29409790039062,-56.59552764892578,-1.6232361793518066,Left
2499.5283203125,23230,1,1751.0,1725.0,1749.0,1736.0,1724.0,1517.0,1762.0,1675.0,69.63395690917969,-56.72175598144531,-1.3490415811538696,Left
2507.55322265625,23231,1,1757.0,1784.0,1791.0,1768.0,1775.0,1381.0,1755.0,1896.0,69.63395690917969,-56.72175598144531,-1.3490415811538696,Left
2509.55322265625,23231,1,1749.0,1787.0,1791.0,1786.0,1767.0,1509.0,1759.0,1876.0,69.63395690917969,-56.72175598144531,-1.3490415811538696,Left
2511.55322265625,23231,1,1765.0,1685.0,1768.0,1747.0,1743.0,1573.0,1753.0,1867.0,69.63395690917969,-56.72175598144531,-1.3490415811538696,Left
2513.55322265625,23231,1,1763.0,1755.0,1745.0,1768.0,1765.0,1645.0,1747.0,1837.0,69.63395690917969,-56.72175598144531,-1.3490415811538696,Left
2515.55322265625,23231,1,1759.0,1741.0,1755.0,1775.0,1739.0,2103.0,1759.0,1823.0,69.63395690917969,-56.72175598144531,-1.3490415811538696,Left
2578.507080078125,23232,1,1756.0,1755.0,1735.0,1748.0,1747.0,2183.0,1742.0,1879.0,69.63395690917969,-56.72175598144531,-1.3490415811538696,Left
2580.507080078125,23232,1,1765.0,1776.0,1689.0,1819.0,1753.0,2019.0,1746.0,1895.0,69.63395690917969,-56.72175598144531,-1.3490415811538696,Left
2582.507080078125,23232,1,1753.0,1773.0,1759.0,1803.0,1751.0,1935.0,1747.0,1870.0,69.63395690917969,-56.72175598144531,-1.3490415811538696,Left
2584.507080078125,23232,1,1751.0,1755.0,1789.0,1723.0,1736.0,1787.0,1748.0,1816.0,69.63395690917969,-56.72175598144531,-1.3490415811538696,Left
2586.507080078125,23232,1,1765.0,1763.0,1789.0,1783.0,1757.0,1463.0,1747.0,1827.0,69.63395690917969,-56.72175598144531,-1.3490415811538696,Left
2579.779052734375,23233,1,1766.0,1756.0,1765.0,1709.0,1757.0,1455.0,1759.0,1656.0,69.63395690917969,-56.72175598144531,-1.3490415811538696,Left
2581.779052734375,23233,1,1763.0,1745.0,1755.0,1804.0,1739.0,1627.0,1747.0,1691.0,69.63395690917969,-56.72175598144531,-1.3490415811538696,Left
2583.779052734375,23233,1,1763.0,1759.0,1734.0,1782.0,1756.0,1619.0,1755.0,1604.0,69.63395690917969,-56.72175598144531,-1.3490415811538696,Left
2585.779052734375,23233,1,1757.0,1783.0,1717.0,1787.0,1758.0,1721.0,1764.0,1542.0,69.63395690917969,-56.72175598144531,-1.3490415811538696,Left
2587.779052734375,23233,1,1764.0,1773.0,1779.0,1732.0,1758.0,1995.0,1755.0,1613.0,69.63395690917969,-56.72175598144531,-1.3490415811538696,Left
2580.53125,23234,1,1757.0,1740.0,1790.0,1709.0,1748.0,2089.0,1757.0,1576.0,69.63395690917969,-56.72175598144531,-1.3490415811538696,Left
2582.53125,23234,1,1759.0,1743.0,1757.0,1723.0,1767.0,1917.0,1763.0,1661.0,69.63395690917969,-56.72175598144531,-1.3490415811538696,Left
2584.53125,23234,1,1751.0,1774.0,1767.0,1765.0,1757.0,1843.0,1767.0,1774.0,69.63395690917969,-56.72175598144531,-1.3490415811538696,Left
2586.53125,23234,1,1757.0,1755.0,1748.0,1803.0,1755.0,1759.0,1749.0,1831.0,69.63395690917969,-56.72175598144531,-1.3490415811538696,Left
2588.53125,23234,1,1726.0,1747.0,1747.0,1705.0,1743.0,1356.0,1741.0,1721.0,69.63395690917969,-56.72175598144531,-1.3490415811538696,Left
2581.21826171875,23235,1,1751.0,1787.0,1755.0,1789.0,1769.0,1373.0,1763.0,1829.0,69.63395690917969,-56.72175598144531,-1.3490415811538696,Left
2583.21826171875,23235,1,1749.0,1763.0,1757.0,1739.0,1803.0,1548.0,1763.0,1772.0,69.63395690917969,-56.72175598144531,-1.3490415811538696,Left
2585.21826171875,23235,1,1767.0,1747.0,1738.0,1752.0,1756.0,1523.0,1747.0,1812.0,69.63395690917969,-56.72175598144531,-1.3490415811538696,Left
2587.21826171875,23235,1,1752.0,1723.0,1757.0,1693.0,1747.0,1641.0,1757.0,1725.0,69.63395690917969,-56.72175598144531,-1.3490415811538696,Left
2589.21826171875,23235,1,1761.0,1737.0,1771.0,1737.0,1763.0,2027.0,1742.0,1735.0,69.63395690917969,-56.72175598144531,-1.3490415811538696,Left
2581.93017578125,23236,1,1767.0,1726.0,1765.0,1765.0,1748.0,2185.0,1756.0,1675.0,69.63395690917969,-56.72175598144531,-1.3490415811538696,Left
2583.93017578125,23236,1,1767.0,1753.0,1759.0,1779.0,1724.0,2119.0,1761.0,1661.0,69.63395690917969,-56.72175598144531,-1.3490415811538696,Left
2585.93017578125,23236,1,1765.0,1771.0,1757.0,1787.0,1759.0,2039.0,1757.0,1733.0,69.63395690917969,-56.72175598144531,-1.3490415811538696,Left
2587.93017578125,23236,1,1763.0,1725.0,1757.0,1747.0,1727.0,2013.0,1759.0,1838.0,69.63395690917969,-56.72175598144531,-1.3490415811538696,Left
2589.93017578125,23236,1,1759.0,1751.0,1784.0,1752.0,1747.0,1592.0,1749.0,1699.0,69.63395690917969,-56.72175598144531,-1.3490415811538696,Left
2582.58935546875,23237,1,1756.0,1789.0,1743.0,1767.0,1752.0,1499.0,1747.0,1673.0,69.63395690917969,-56.72175598144531,-1.3490415811538696,Left
2584.58935546875,23237,1,1757.0,1753.0,1763.0,1719.0,1710.0,1691.0,1757.0,1783.0,69.92393493652344,-56.89171600341797,-1.5106091499328613,Left
2586.58935546875,23237,1,1764.0,1770.0,1752.0,1739.0,1761.0,1690.0,1747.0,1671.0,69.92393493652344,-56.89171600341797,-1.5106091499328613,Left
2588.58935546875,23237,1,1752.0,1722.0,1751.0,1721.0,1787.0,1869.0,1723.0,1689.0,69.92393493652344,-56.89171600341797,-1.5106091499328613,Left
2590.58935546875,23237,1,1763.0,1754.0,1746.0,1771.0,1693.0,2109.0,1764.0,1675.0,69.92393493652344,-56.89171600341797,-1.5106091499328613,Left
2582.94189453125,23238,1,1751.0,1787.0,1749.0,1781.0,1755.0,2175.0,1767.0,1751.0,69.92393493652344,-56.89171600341797,-1.5106091499328613,Left
2584.94189453125,23238,1,1756.0,1749.0,1753.0,1810.0,1737.0,2013.0,1757.0,1835.0,69.92393493652344,-56.89171600341797,-1.5106091499328613,Left
2586.94189453125,23238,1,1757.0,1725.0,1764.0,1769.0,1751.0,2055.0,1749.0,1851.0,69.92393493652344,-56.89171600341797,-1.5106091499328613,Left
2588.94189453125,23238,1,1761.0,1821.0,1755.0,1782.0,1773.0,1957.0,1764.0,1751.0,69.92393493652344,-56.89171600341797,-1.5106091499328613,Left
2590.94189453125,23238,1,1766.0,1736.0,1747.0,1743.0,1754.0,1577.0,1765.0,1678.0,69.92393493652344,-56.89171600341797,-1.5106091499328613,Left
2587.635986328125,23239,1,1761.0,1762.0,1755.0,1739.0,1765.0,1489.0,1749.0,1847.0,69.92393493652344,-56.89171600341797,-1.5106091499328613,Left
2589.635986328125,23239,1,1763.0,1749.0,1743.0,1747.0,1751.0,1663.0,1761.0,1911.0,69.92393493652344,-56.89171600341797,-1.5106091499328613,Left
2591.635986328125,23239,1,1757.0,1745.0,1751.0,1723.0,1725.0,1623.0,1749.0,1816.0,69.92393493652344,-56.89171600341797,-1.5106091499328613,Left
2593.635986328125,23239,1,1743.0,1755.0,1772.0,1722.0,1733.0,1513.0,2251.0,1933.0,69.92393493652344,-56.89171600341797,-1.5106091499328613,Left
2595.635986328125,23239,1,1753.0,1723.0,1765.0,1771.0,1741.0,1919.0,1983.0,1867.0,69.92393493652344,-56.89171600341797,-1.5106091499328613,Left
2592.627197265625,23240,1,1759.0,1761.0,1759.0,1833.0,1749.0,1902.0,2236.0,1832.0,69.92393493652344,-56.89171600341797,-1.5106091499328613,Left
2594.627197265625,23240,1,1755.0,1767.0,1750.0,1782.0,1764.0,1811.0,1843.0,1723.0,69.92393493652344,-56.89171600341797,-1.5106091499328613,Left
2596.627197265625,23240,1,1763.0,1747.0,1752.0,1807.0,1747.0,1838.0,1491.0,1719.0,69.92393493652344,-56.89171600341797,-1.5106091499328613,Left
2598.627197265625,23240,1,1767.0,1751.0,1755.0,1772.0,1749.0,1854.0,1527.0,1703.0,69.92393493652344,-56.89171600341797,-1.5106091499328613,Left
2600.627197265625,23240,1,1767.0,1758.0,1749.0,1727.0,1741.0,1487.0,1594.0,1655.0,69.92393493652344,-56.89171600341797,-1.5106091499328613,Left
2605.05224609375,23241,1,1766.0,1767.0,1724.0,1750.0,1763.0,1401.0,1623.0,1459.0,69.92393493652344,-56.89171600341797,-1.5106091499328613,Left
2607.05224609375,23241,1,1750.0,1799.0,1763.0,1807.0,1767.0,1531.0,1658.0,1688.0,69.92393493652344,-56.89171600341797,-1.5106091499328613,Left
2609.05224609375,23241,1,1752.0,1779.0,1771.0,1773.0,1755.0,1575.0,1674.0,1662.0,69.92393493652344,-56.89171600341797,-1.5106091499328613,Left
2611.05224609375,23241,1,1765.0,1723.0,1771.0,1694.0,1749.0,1595.0,1691.0,1751.0,69.92393493652344,-56.89171600341797,-1.5106091499328613,Left
2613.05224609375,23241,1,1752.0,1711.0,1771.0,1751.0,1740.0,2069.0,1709.0,1643.0,69.92393493652344,-56.89171600341797,-1.5106091499328613,Left
2679.80224609375,23242,1,1751.0,1687.0,1710.0,1734.0,1739.0,2183.0,1704.0,1635.0,69.92393493652344,-56.89171600341797,-1.5106091499328613,Left
2681.80224609375,23242,1,1763.0,1822.0,1720.0,1771.0,1764.0,1949.0,1733.0,1702.0,69.92393493652344,-56.89171600341797,-1.5106091499328613,Left
2683.80224609375,23242,1,1759.0,1789.0,1789.0,1799.0,1747.0,2035.0,1720.0,1754.0,69.92393493652344,-56.89171600341797,-1.5106091499328613,Left
2685.80224609375,23242,1,1762.0,1772.0,1780.0,1769.0,1755.0,1983.0,1742.0,1807.0,69.92393493652344,-56.89171600341797,-1.5106091499328613,Left
2687.80224609375,23242,1,1762.0,1748.0,1751.0,1753.0,1757.0,1623.0,1751.0,1814.0,69.92393493652344,-56.89171600341797,-1.5106091499328613,Left
2680.63623046875,23243,1,1749.0,1749.0,1721.0,1751.0,1755.0,1645.0,1752.0,1868.0,69.92393493652344,-56.89171600341797,-1.5106091499328613,Left
2682.63623046875,23243,1,1755.0,1755.0,1718.0,1751.0,1688.0,1751.0,1749.0,1851.0,69.92393493652344,-56.89171600341797,-1.5106091499328613,Left
2684.63623046875,23243,1,1763.0,1741.0,1747.0,1740.0,1747.0,1693.0,1755.0,1831.0,69.92393493652344,-56.89171600341797,-1.5106091499328613,Left
2686.63623046875,23243,1,1767.0,1769.0,1784.0,1711.0,1741.0,1692.0,1751.0,1911.0,69.92393493652344,-56.89171600341797,-1.5106091499328613,Left
2688.63623046875,23243,1,1758.0,1758.0,1788.0,1771.0,1755.0,2025.0,1757.0,1779.0,70.71984100341797,-56.83222961425781,-1.7896978855133057,Left
2681.177978515625,23244,1,1755.0,1779.0,1752.0,1767.0,1747.0,2055.0,2509.0,1718.0,70.71984100341797,-56.83222961425781,-1.7896978855133057,Left
2683.177978515625,23244,1,1757.0,1767.0,1750.0,1762.0,1753.0,1959.0,2986.0,1639.0,70.71984100341797,-56.83222961425781,-1.7896978855133057,Left
2685.177978515625,23244,1,1759.0,1751.0,1751.0,1803.0,1751.0,1879.0,3289.0,1676.0,70.71984100341797,-56.83222961425781,-1.7896978855133057,Left
2687.177978515625,23244,1,1765.0,1763.0,1767.0,1770.0,1759.0,1835.0,2921.0,1657.0,70.71984100341797,-56.83222961425781,-1.7896978855133057,Left
2689.177978515625,23244,1,1751.0,1737.0,1742.0,1741.0,1719.0,1618.0,3311.0,1735.0,70.71984100341797,-56.83222961425781,-1.7896978855133057,Left
2681.68310546875,23245,1,1764.0,1769.0,1737.0,1743.0,1737.0,1407.0,3038.0,1852.0,70.71984100341797,-56.83222961425781,-1.7896978855133057,Left
2683.68310546875,23245,1,1759.0,1767.0,1752.0,1753.0,1788.0,1439.0,3355.0,1701.0,70.71984100341797,-56.83222961425781,-1.7896978855133057,Left
2685.68310546875,23245,1,1763.0,1736.0,1736.0,1723.0,1759.0,1428.0,3839.0,1799.0,70.71984100341797,-56.83222961425781,-1.7896978855133057,Left
2687.68310546875,23245,1,1765.0,1757.0,1741.0,1823.0,1750.0,1709.0,3986.0,1549.0,70.71984100341797,-56.83222961425781,-1.7896978855133057,Left
2689.68310546875,23245,1,1767.0,1747.0,1770.0,1772.0,1735.0,1885.0,3813.0,1780.0,70.71984100341797,-56.83222961425781,-1.7896978855133057,Left
2682.043212890625,23246,1,1749.0,1711.0,1748.0,1745.0,1746.0,1866.0,3737.0,1934.0,70.71984100341797,-56.83222961425781,-1.7896978855133057,Left
2684.043212890625,23246,1,1763.0,1749.0,1745.0,1751.0,1747.0,1855.0,3747.0,1816.0,70.71984100341797,-56.83222961425781,-1.7896978855133057,Left
2686.043212890625,23246,1,1751.0,1725.0,1769.0,1762.0,1756.0,1821.0,3515.0,1791.0,70.71984100341797,-56.83222961425781,-1.7896978855133057,Left
2688.043212890625,23246,1,1762.0,1767.0,1759.0,1769.0,1757.0,1772.0,3481.0,1775.0,70.71984100341797,-56.83222961425781,-1.7896978855133057,Left
2690.043212890625,23246,1,1751.0,1767.0,1755.0,1763.0,1757.0,1415.0,3605.0,1739.0,70.71984100341797,-56.83222961425781,-1.7896978855133057,Left
2682.38623046875,23247,1,1764.0,1765.0,1740.0,1725.0,1756.0,1389.0,3613.0,1801.0,70.71984100341797,-56.83222961425781,-1.7896978855133057,Left
2684.38623046875,23247,1,1767.0,1787.0,1766.0,1769.0,1763.0,1555.0,3322.0,1931.0,70.71984100341797,-56.83222961425781,-1.7896978855133057,Left
2686.38623046875,23247,1,1762.0,1786.0,1765.0,1769.0,1763.0,1528.0,3100.0,1883.0,70.71984100341797,-56.83222961425781,-1.7896978855133057,Left
2688.38623046875,23247,1,1761.0,1781.0,1757.0,1805.0,1763.0,1593.0,2815.0,1734.0,70.71984100341797,-56.83222961425781,-1.7896978855133057,Left
2690.38623046875,23247,1,1765.0,1748.0,1739.0,1752.0,1755.0,1877.0,2815.0,1425.0,70.71984100341797,-56.83222961425781,-1.7896978855133057,Left
2682.84228515625,23248,1,1762.0,1753.0,1733.0,1745.0,1757.0,1971.0,2727.0,1687.0,70.71984100341797,-56.83222961425781,-1.7896978855133057,Left
2684.84228515625,23248,1,1759.0,1735.0,1749.0,1787.0,1752.0,1893.0,2379.0,1677.0,70.71984100341797,-56.83222961425781,-1.7896978855133057,Left
2686.84228515625,23248,1,1762.0,1775.0,1745.0,1753.0,1743.0,1949.0,1887.0,1670.0,70.71984100341797,-56.83222961425781,-1.7896978855133057,Left
2688.84228515625,23248,1,1749.0,1755.0,1780.0,1720.0,1733.0,1849.0,1671.0,1709.0,70.71984100341797,-56.83222961425781,-1.7896978855133057,Left
2690.84228515625,23248,1,1763.0,1685.0,1781.0,1739.0,1749.0,1509.0,0.0,1672.0,70.71984100341797,-56.83222961425781,-1.7896978855133057,Left
2683.1220703125,23249,1,1755.0,1739.0,1773.0,1726.0,1757.0,1381.0,0.0,1708.0,70.71984100341797,-56.83222961425781,-1.7896978855133057,Left
2685.1220703125,23249,1,1762.0,1772.0,1768.0,1747.0,1751.0,1559.0,0.0,1701.0,70.71984100341797,-56.83222961425781,-1.7896978855133057,Left
2687.1220703125,23249,1,1751.0,1775.0,1753.0,1758.0,1766.0,1532.0,0.0,1695.0,70.71984100341797,-56.83222961425781,-1.7896978855133057,Left
2689.1220703125,23249,1,1764.0,1773.0,1766.0,1766.0,1747.0,1645.0,0.0,1624.0,70.71984100341797,-56.83222961425781,-1.7896978855133057,Left
2691.1220703125,23249,1,1765.0,1767.0,1767.0,1763.0,1757.0,1914.0,1291.0,1833.0,70.71984100341797,-56.83222961425781,-1.7896978855133057,Left
2691.68896484375,23250,1,1765.0,1771.0,1739.0,1785.0,1757.0,1931.0,2577.0,1681.0,70.71984100341797,-56.83222961425781,-1.7896978855133057,Left
2693.68896484375,23250,1,1752.0,1757.0,1759.0,1779.0,1770.0,1763.0,3420.0,1722.0,70.71984100341797,-56.83222961425781,-1.7896978855133057,Left
2695.68896484375,23250,1,1755.0,1749.0,1753.0,1811.0,1757.0,1771.0,253.0,1687.0,71.01944732666016,-56.873077392578125,-2.0021300315856934,Left
2697.68896484375,23250,1,1757.0,1815.0,1755.0,1747.0,1747.0,1711.0,0.0,1909.0,71.01944732666016,-56.873077392578125,-2.0021300315856934,Left
2699.68896484375,23250,1,1765.0,1748.0,1758.0,1756.0,1746.0,1405.0,0.0,1855.0,71.01944732666016,-56.873077392578125,-2.0021300315856934,Left
2704.64013671875,23251,1,1764.0,1767.0,1735.0,1763.0,1767.0,1383.0,422.0,1797.0,71.01944732666016,-56.873077392578125,-2.0021300315856934,Left
2706.64013671875,23251,1,1757.0,1789.0,1773.0,1773.0,1747.0,1588.0,1749.0,1735.0,71.01944732666016,-56.873077392578125,-2.0021300315856934,Left
2708.64013671875,23251,1,1763.0,1769.0,1703.0,1783.0,1765.0,1653.0,2887.0,1755.0,71.01944732666016,-56.873077392578125,-2.0021300315856934,Left
2710.64013671875,23251,1,1763.0,1768.0,1742.0,1768.0,1765.0,1659.0,3839.0,1763.0,71.01944732666016,-56.873077392578125,-2.0021300315856934,Left
2712.64013671875,23251,1,1759.0,1770.0,1797.0,1756.0,1771.0,2109.0,3838.0,1785.0,71.01944732666016,-56.873077392578125,-2.0021300315856934,Left
2748.6904296875,23252,1,1755.0,1711.0,1789.0,1719.0,1721.0,2040.0,3839.0,1785.0,71.01944732666016,-56.873077392578125,-2.0021300315856934,Left
2750.6904296875,23252,1,1765.0,1749.0,1782.0,1743.0,1711.0,1992.0,3849.0,1705.0,71.01944732666016,-56.873077392578125,-2.0021300315856934,Left
2752.6904296875,23252,1,1759.0,1779.0,1755.0,1785.0,1771.0,1971.0,3833.0,1679.0,71.01944732666016,-56.873077392578125,-2.0021300315856934,Left
2754.6904296875,23252,1,1757.0,1779.0,1769.0,1799.0,1753.0,1893.0,3835.0,1531.0,71.01944732666016,-56.873077392578125,-2.0021300315856934,Left
2756.6904296875,23252,1,1749.0,1707.0,1751.0,1723.0,1746.0,1495.0,3853.0,1727.0,71.01944732666016,-56.873077392578125,-2.0021300315856934,Left
2749.196044921875,23253,1,1758.0,1756.0,1749.0,1694.0,1781.0,1407.0,1963.0,1734.0,71.01944732666016,-56.873077392578125,-2.0021300315856934,Left
2751.196044921875,23253,1,1767.0,1720.0,1754.0,1763.0,1741.0,1635.0,136.0,1835.0,71.01944732666016,-56.873077392578125,-2.0021300315856934,Left
2753.196044921875,23253,1,1763.0,1737.0,1757.0,1768.0,1749.0,1555.0,1339.0,1721.0,71.01944732666016,-56.873077392578125,-2.0021300315856934,Left
2755.196044921875,23253,1,1765.0,1790.0,1757.0,1775.0,1767.0,1694.0,2357.0,1622.0,71.01944732666016,-56.873077392578125,-2.0021300315856934,Left
2757.196044921875,23253,1,1751.0,1798.0,1740.0,1768.0,1767.0,2165.0,2878.0,1773.0,71.01944732666016,-56.873077392578125,-2.0021300315856934,Left
2749.501220703125,23254,1,1765.0,1783.0,1740.0,1753.0,1763.0,2168.0,3192.0,1655.0,71.01944732666016,-56.873077392578125,-2.0021300315856934,Left
2751.501220703125,23254,1,1764.0,1756.0,1748.0,1721.0,1749.0,1997.0,3503.0,1670.0,71.01944732666016,-56.873077392578125,-2.0021300315856934,Left
2753.501220703125,23254,1,1765.0,1727.0,1757.0,1759.0,1752.0,2041.0,3844.0,1657.0,71.01944732666016,-56.873077392578125,-2.0021300315856934,Left
2755.501220703125,23254,1,1766.0,1771.0,1774.0,1759.0,1753.0,1951.0,3831.0,1727.0,71.01944732666016,-56.873077392578125,-2.0021300315856934,Left
2757.501220703125,23254,1,1723.0,1769.0,1775.0,1706.0,1755.0,1439.0,3813.0,1853.0,71.01944732666016,-56.873077392578125,-2.0021300315856934,Left
2749.77734375,23255,1,1765.0,1769.0,1763.0,1783.0,1767.0,1439.0,3831.0,1849.0,71.01944732666016,-56.873077392578125,-2.0021300315856934,Left
2751.77734375,23255,1,1749.0,1785.0,1763.0,1753.0,1753.0,1684.0,3836.0,1885.0,71.01944732666016,-56.873077392578125,-2.0021300315856934,Left
2753.77734375,23255,1,1767.0,1721.0,1765.0,1751.0,1757.0,1717.0,3849.0,1775.0,71.01944732666016,-56.873077392578125,-2.0021300315856934,Left
2755.77734375,23255,1,1765.0,1756.0,1781.0,1788.0,1741.0,1689.0,3852.0,1717.0,71.01944732666016,-56.873077392578125,-2.0021300315856934,Left
2757.77734375,23255,1,1756.0,1747.0,1771.0,1787.0,1759.0,2029.0,3512.0,1791.0,71.01944732666016,-56.873077392578125,-2.0021300315856934,Left
2751.623046875,23256,1,1763.0,1775.0,1749.0,1765.0,1763.0,2067.0,3158.0,1695.0,71.01944732666016,-56.873077392578125,-2.0021300315856934,Left
2753.623046875,23256,1,1751.0,1773.0,1763.0,1764.0,1757.0,1899.0,2999.0,1815.0,71.01944732666016,-56.873077392578125,-2.0021300315856934,Left
2755.623046875,23256,1,1740.0,1717.0,1747.0,1692.0,1736.0,1779.0,2879.0,1891.0,71.01944732666016,-56.873077392578125,-2.0021300315856934,Left
2757.623046875,23256,1,1752.0,1749.0,1754.0,1780.0,1739.0,1776.0,2613.0,1867.0,71.01944732666016,-56.873077392578125,-2.0021300315856934,Left
2759.623046875,23256,1,1757.0,1742.0,1755.0,1752.0,1751.0,1447.0,2357.0,1726.0,71.694580078125,-57.27483367919922,-2.5402815341949463,Left
2763.506103515625,23257,1,1757.0,1773.0,1742.0,1751.0,1741.0,1383.0,1950.0,1800.0,71.694580078125,-57.27483367919922,-2.5402815341949463,Left
2765.506103515625,23257,1,1766.0,1779.0,1727.0,1747.0,1751.0,1499.0,1643.0,1832.0,71.694580078125,-57.27483367919922,-2.5402815341949463,Left
2767.506103515625,23257,1,1751.0,1741.0,1747.0,1781.0,1758.0,1571.0,1421.0,1630.0,71.694580078125,-57.27483367919922,-2.5402815341949463,Left
2769.506103515625,23257,1,1762.0,1765.0,1747.0,1769.0,1742.0,1542.0,1197.0,1662.0,71.694580078125,-57.27483367919922,-2.5402815341949463,Left
2771.506103515625,23257,1,1753.0,1767.0,1765.0,1757.0,1736.0,2013.0,948.0,1701.0,71.694580078125,-57.27483367919922,-2.5402815341949463,Left
2772.466064453125,23258,1,1758.0,1749.0,1769.0,1741.0,1755.0,1997.0,791.0,1757.0,71.694580078125,-57.27483367919922,-2.5402815341949463,Left
2774.466064453125,23258,1,1763.0,1749.0,1765.0,1791.0,1753.0,1846.0,681.0,1688.0,71.694580078125,-57.27483367919922,-2.5402815341949463,Left
2776.466064453125,23258,1,1759.0,1768.0,1765.0,1797.0,1739.0,1851.0,523.0,1657.0,71.694580078125,-57.27483367919922,-2.5402815341949463,Left
2778.466064453125,23258,1,1751.0,1769.0,1753.0,1767.0,1765.0,1786.0,413.0,1751.0,71.694580078125,-57.27483367919922,-2.5402815341949463,Left
2780.466064453125,23258,1,1763.0,1748.0,1748.0,1724.0,1753.0,1451.0,319.0,1765.0,71.694580078125,-57.27483367919922,-2.5402815341949463,Left
2781.949951171875,23259,1,1751.0,1748.0,1757.0,1725.0,1750.0,1508.0,79.0,1836.0,71.694580078125,-57.27483367919922,-2.5402815341949463,Left
2783.949951171875,23259,1,1751.0,1727.0,1737.0,1751.0,1753.0,1620.0,0.0,1941.0,71.694580078125,-57.27483367919922,-2.5402815341949463,Left
2785.949951171875,23259,1,1751.0,1747.0,1737.0,1779.0,1781.0,1648.0,0.0,1893.0,71.694580078125,-57.27483367919922,-2.5402815341949463,Left
2787.949951171875,23259,1,1767.0,1755.0,1753.0,1771.0,1750.0,1593.0,0.0,1798.0,71.694580078125,-57.27483367919922,-2.5402815341949463,Left
2789.949951171875,23259,1,1757.0,1749.0,1735.0,1739.0,1728.0,2025.0,0.0,1827.0,71.694580078125,-57.27483367919922,-2.5402815341949463,Left
2795.206298828125,23260,1,1750.0,1689.0,1718.0,1743.0,1751.0,2004.0,0.0,1704.0,71.694580078125,-57.27483367919922,-2.5402815341949463,Left
2797.206298828125,23260,1,1751.0,1791.0,1767.0,1749.0,1721.0,1957.0,0.0,1737.0,71.694580078125,-57.27483367919922,-2.5402815341949463,Left
2799.206298828125,23260,1,1751.0,1804.0,1827.0,1739.0,1749.0,1994.0,0.0,1723.0,71.694580078125,-57.27483367919922,-2.5402815341949463,Left
2801.206298828125,23260,1,1762.0,1779.0,1803.0,1753.0,1788.0,1939.0,0.0,1863.0,71.694580078125,-57.27483367919922,-2.5402815341949463,Left
2803.206298828125,23260,1,1757.0,1715.0,1750.0,1779.0,1723.0,1433.0,0.0,1812.0,71.694580078125,-57.27483367919922,-2.5402815341949463,Left
2809.361328125,23261,1,1756.0,1786.0,1739.0,1758.0,1765.0,1311.0,0.0,1741.0,71.694580078125,-57.27483367919922,-2.5402815341949463,Left
2811.361328125,23261,1,1755.0,1805.0,1743.0,1739.0,1735.0,1532.0,0.0,1866.0,71.694580078125,-57.27483367919922,-2.5402815341949463,Left
2813.361328125,23261,1,1751.0,1741.0,1747.0,1787.0,1723.0,1440.0,125.0,1785.0,71.694580078125,-57.27483367919922,-2.5402815341949463,Left
2815.361328125,23261,1,1763.0,1727.0,1735.0,1763.0,1747.0,1549.0,372.0,1856.0,71.694580078125,-57.27483367919922,-2.5402815341949463,Left
2817.361328125,23261,1,1756.0,1750.0,1736.0,1786.0,1751.0,1870.0,495.0,1851.0,71.694580078125,-57.27483367919922,-2.5402815341949463,Left
2820.404052734375,23262,1,1765.0,1759.0,1736.0,1768.0,1781.0,1879.0,622.0,1749.0,71.694580078125,-57.27483367919922,-2.5402815341949463,Left
2822.404052734375,23262,1,1749.0,1715.0,1763.0,1721.0,1740.0,1705.0,747.0,1737.0,71.694580078125,-57.27483367919922,-2.5402815341949463,Left
2824.404052734375,23262,1,1763.0,1755.0,1725.0,1773.0,1753.0,1783.0,850.0,1635.0,71.694580078125,-57.27483367919922,-2.5402815341949463,Left
2826.404052734375,23262,1,1761.0,1733.0,1763.0,1766.0,1735.0,1780.0,893.0,1593.0,71.694580078125,-57.27483367919922,-2.5402815341949463,Left
2828.404052734375,23262,1,1755.0,1737.0,1741.0,1743.0,1749.0,1469.0,845.0,1516.0,71.694580078125,-57.27483367919922,-2.5402815341949463,Left
2825.31005859375,23263,1,1765.0,1775.0,1767.0,1752.0,1751.0,1355.0,810.0,1589.0,71.694580078125,-57.27483367919922,-2.5402815341949463,Left
2827.31005859375,23263,1,1751.0,1789.0,1766.0,1783.0,1764.0,1517.0,595.0,1662.0,71.694580078125,-57.27483367919922,-2.5402815341949463,Left
2829.31005859375,23263,1,1751.0,1706.0,1737.0,1753.0,1695.0,1565.0,652.0,1927.0,73.08605194091797,-57.22950744628906,-3.245155096054077,Left
2831.31005859375,23263,1,1765.0,1741.0,1756.0,1789.0,1750.0,1545.0,687.0,1787.0,73.08605194091797,-57.22950744628906,-3.245155096054077,Left
2833.31005859375,23263,1,1765.0,1753.0,1767.0,1747.0,1769.0,1893.0,820.0,1752.0,73.08605194091797,-57.22950744628906,-3.245155096054077,Left
2831.244140625,23264,1,1751.0,1775.0,1759.0,1763.0,1759.0,1881.0,904.0,1804.0,73.08605194091797,-57.22950744628906,-3.245155096054077,Left
2833.244140625,23264,1,1749.0,1779.0,1741.0,1787.0,1771.0,1767.0,936.0,1583.0,73.08605194091797,-57.22950744628906,-3.245155096054077,Left
2835.244140625,23264,1,1765.0,1797.0,1743.0,1785.0,1752.0,1817.0,1084.0,1770.0,73.08605194091797,-57.22950744628906,-3.245155096054077,Left
2837.244140625,23264,1,1756.0,1767.0,1769.0,1756.0,1725.0,1843.0,1198.0,1721.0,73.08605194091797,-57.22950744628906,-3.245155096054077,Left
2839.244140625,23264,1,1765.0,1735.0,1752.0,1723.0,1755.0,1387.0,1309.0,1687.0,73.08605194091797,-57.22950744628906,-3.245155096054077,Left
2841.951171875,23265,1,1748.0,1751.0,1737.0,1759.0,1735.0,1267.0,1381.0,1720.0,73.08605194091797,-57.22950744628906,-3.245155096054077,Left
2843.951171875,23265,1,1757.0,1740.0,1723.0,1747.0,1740.0,1497.0,1459.0,1816.0,73.08605194091797,-57.22950744628906,-3.245155096054077,Left
2845.951171875,23265,1,1757.0,1763.0,1767.0,1749.0,1742.0,1653.0,1493.0,1875.0,73.08605194091797,-57.22950744628906,-3.245155096054077,Left
2847.951171875,23265,1,1752.0,1748.0,1787.0,1772.0,1757.0,1773.0,1557.0,1885.0,73.08605194091797,-57.22950744628906,-3.245155096054077,Left
2849.951171875,23265,1,1763.0,1779.0,1771.0,1791.0,1759.0,2063.0,1577.0,1787.0,73.08605194091797,-57.22950744628906,-3.245155096054077,Left
2853.55810546875,23266,1,1750.0,1735.0,1790.0,1755.0,1768.0,1996.0,1605.0,1724.0,73.08605194091797,-57.22950744628906,-3.245155096054077,Left
2855.55810546875,23266,1,1753.0,1742.0,1737.0,1748.0,1749.0,1853.0,1625.0,1620.0,73.08605194091797,-57.22950744628906,-3.245155096054077,Left
2857.55810546875,23266,1,1759.0,1771.0,1747.0,1747.0,1747.0,1797.0,1659.0,1631.0,73.08605194091797,-57.22950744628906,-3.245155096054077,Left
2859.55810546875,23266,1,1757.0,1749.0,1753.0,1766.0,1747.0,1701.0,1673.0,1575.0,73.08605194091797,-57.22950744628906,-3.245155096054077,Left
2861.55810546875,23266,1,1756.0,1785.0,1783.0,1783.0,1748.0,1223.0,1695.0,1783.0,73.08605194091797,-57.22950744628906,-3.245155096054077,Left
2866.718017578125,23267,1,1763.0,1757.0,1759.0,1763.0,1769.0,1271.0,1707.0,1880.0,73.08605194091797,-57.22950744628906,-3.245155096054077,Left
2868.718017578125,23267,1,1741.0,1779.0,1771.0,1739.0,1759.0,1431.0,1717.0,1940.0,73.08605194091797,-57.22950744628906,-3.245155096054077,Left
2870.718017578125,23267,1,1763.0,1755.0,1759.0,1775.0,1748.0,1445.0,1723.0,1763.0,73.08605194091797,-57.22950744628906,-3.245155096054077,Left
2872.718017578125,23267,1,1762.0,1719.0,1771.0,1747.0,1727.0,1527.0,1735.0,1756.0,73.08605194091797,-57.22950744628906,-3.245155096054077,Left
2874.718017578125,23267,1,1764.0,1765.0,1737.0,1765.0,1763.0,2044.0,1727.0,1785.0,73.08605194091797,-57.22950744628906,-3.245155096054077,Left
2871.79931640625,23268,1,1765.0,1723.0,1741.0,1741.0,1736.0,2099.0,1739.0,1847.0,73.08605194091797,-57.22950744628906,-3.245155096054077,Left
2873.79931640625,23268,1,1764.0,1694.0,1737.0,1717.0,1747.0,1927.0,1739.0,1741.0,73.08605194091797,-57.22950744628906,-3.245155096054077,Left
2875.79931640625,23268,1,1765.0,1757.0,1751.0,1715.0,1753.0,1893.0,1751.0,1613.0,73.08605194091797,-57.22950744628906,-3.245155096054077,Left
2877.79931640625,23268,1,1763.0,1834.0,1749.0,1783.0,1784.0,1891.0,1727.0,1737.0,73.08605194091797,-57.22950744628906,-3.245155096054077,Left
2879.79931640625,23268,1,1752.0,1783.0,1747.0,1771.0,1717.0,1431.0,1751.0,1767.0,73.08605194091797,-57.22950744628906,-3.245155096054077,Left
2885.51318359375,23269,1,1765.0,1699.0,1761.0,1705.0,1780.0,1355.0,1753.0,1779.0,73.08605194091797,-57.22950744628906,-3.245155096054077,Left
2887.51318359375,23269,1,1765.0,1765.0,1759.0,1765.0,1749.0,1578.0,1753.0,1791.0,73.08605194091797,-57.22950744628906,-3.245155096054077,Left
2889.51318359375,23269,1,1752.0,1771.0,1771.0,1771.0,1762.0,1638.0,1751.0,1803.0,73.08605194091797,-57.22950744628906,-3.245155096054077,Left
2891.51318359375,23269,1,1757.0,1751.0,1737.0,1805.0,1737.0,1635.0,1748.0,1770.0,73.08605194091797,-57.22950744628906,-3.245155096054077,Left
2893.51318359375,23269,1,1759.0,1763.0,1789.0,1769.0,1757.0,2035.0,1759.0,1755.0,73.19068145751953,-57.36790466308594,-3.5350863933563232,Left
2892.327392578125,23270,1,1758.0,1785.0,1785.0,1763.0,1746.0,2037.0,1749.0,1647.0,73.19068145751953,-57.36790466308594,-3.5350863933563232,Left
2894.327392578125,23270,1,1751.0,1725.0,1748.0,1705.0,1751.0,1883.0,1735.0,1709.0,73.19068145751953,-57.36790466308594,-3.5350863933563232,Left
2896.327392578125,23270,1,1756.0,1737.0,1747.0,1791.0,1747.0,1803.0,1741.0,1719.0,73.19068145751953,-57.36790466308594,-3.5350863933563232,Left
2898.327392578125,23270,1,1751.0,1813.0,1750.0,1774.0,1747.0,1813.0,1740.0,1719.0,73.19068145751953,-57.36790466308594,-3.5350863933563232,Left
2900.327392578125,23270,1,1751.0,1703.0,1767.0,1751.0,1725.0,1575.0,1755.0,1811.0,73.19068145751953,-57.36790466308594,-3.5350863933563232,Left
2902.326171875,23271,1,1763.0,1748.0,1739.0,1783.0,1789.0,1561.0,1741.0,1735.0,73.19068145751953,-57.36790466308594,-3.5350863933563232,Left
2904.326171875,23271,1,1751.0,1764.0,1765.0,1782.0,1740.0,1695.0,1751.0,1725.0,73.19068145751953,-57.36790466308594,-3.5350863933563232,Left
2906.326171875,23271,1,1757.0,1752.0,1769.0,1783.0,1740.0,1603.0,1752.0,1767.0,73.19068145751953,-57.36790466308594,-3.5350863933563232,Left
2908.326171875,23271,1,1751.0,1789.0,1735.0,1763.0,1690.0,1700.0,1749.0,1693.0,73.19068145751953,-57.36790466308594,-3.5350863933563232,Left
2910.326171875,23271,1,1763.0,1782.0,1763.0,1785.0,1837.0,2030.0,1755.0,1711.0,73.19068145751953,-57.36790466308594,-3.5350863933563232,Left
2911.93603515625,23272,1,1758.0,1613.0,1739.0,1720.0,1737.0,2072.0,1765.0,1741.0,73.19068145751953,-57.36790466308594,-3.5350863933563232,Left
2913.93603515625,23272,1,1763.0,1769.0,1773.0,1774.0,1704.0,1899.0,1753.0,1685.0,73.19068145751953,-57.36790466308594,-3.5350863933563232,Left
2915.93603515625,23272,1,1765.0,1791.0,1736.0,1766.0,1784.0,1885.0,1763.0,1677.0,73.19068145751953,-57.36790466308594,-3.5350863933563232,Left
2917.93603515625,23272,1,1752.0,1763.0,1751.0,1723.0,1759.0,1776.0,1747.0,1799.0,73.19068145751953,-57.36790466308594,-3.5350863933563232,Left
2919.93603515625,23272,1,1752.0,1783.0,1746.0,1788.0,1708.0,1487.0,1758.0,1809.0,73.19068145751953,-57.36790466308594,-3.5350863933563232,Left
2924.982177734375,23273,1,1762.0,1767.0,1753.0,1767.0,1768.0,1493.0,1747.0,1819.0,73.19068145751953,-57.36790466308594,-3.5350863933563232,Left
2926.982177734375,23273,1,1759.0,1739.0,1757.0,1783.0,1785.0,1624.0,1767.0,1758.0,73.19068145751953,-57.36790466308594,-3.5350863933563232,Left
2928.982177734375,23273,1,1762.0,1737.0,1755.0,1758.0,1739.0,1605.0,1743.0,1733.0,73.19068145751953,-57.36790466308594,-3.5350863933563232,Left
2930.982177734375,23273,1,1767.0,1763.0,1741.0,1749.0,1765.0,1790.0,1757.0,1719.0,73.19068145751953,-57.36790466308594,-3.5350863933563232,Left
2932.982177734375,23273,1,1750.0,1753.0,1748.0,1768.0,1755.0,2101.0,1763.0,1755.0,73.19068145751953,-57.36790466308594,-3.5350863933563232,Left
2933.26220703125,23274,1,1764.0,1769.0,1756.0,1783.0,1739.0,2045.0,1725.0,1621.0,73.19068145751953,-57.36790466308594,-3.5350863933563232,Left
2935.26220703125,23274,1,1763.0,1749.0,1738.0,1735.0,1759.0,1845.0,1764.0,1711.0,73.19068145751953,-57.36790466308594,-3.5350863933563232,Left
2937.26220703125,23274,1,1752.0,1770.0,1774.0,1718.0,1774.0,1847.0,1763.0,1805.0,73.19068145751953,-57.36790466308594,-3.5350863933563232,Left
2939.26220703125,23274,1,1759.0,1800.0,1763.0,1780.0,1733.0,1829.0,1746.0,1699.0,73.19068145751953,-57.36790466308594,-3.5350863933563232,Left
2941.26220703125,23274,1,1750.0,1693.0,1757.0,1739.0,1724.0,1478.0,1765.0,1647.0,73.19068145751953,-57.36790466308594,-3.5350863933563232,Left
2942.078125,23275,1,1762.0,1747.0,1735.0,1724.0,1748.0,1368.0,1741.0,1557.0,73.19068145751953,-57.36790466308594,-3.5350863933563232,Left
2944.078125,23275,1,1763.0,1848.0,1751.0,1775.0,1803.0,1612.0,1755.0,1811.0,73.19068145751953,-57.36790466308594,-3.5350863933563232,Left
2946.078125,23275,1,1762.0,1753.0,1749.0,1787.0,1763.0,1619.0,1756.0,1736.0,73.19068145751953,-57.36790466308594,-3.5350863933563232,Left
2948.078125,23275,1,1766.0,1629.0,1763.0,1753.0,1722.0,1752.0,1765.0,1709.0,73.19068145751953,-57.36790466308594,-3.5350863933563232,Left
2950.078125,23275,1,1750.0,1735.0,1757.0,1767.0,1715.0,2159.0,1769.0,1771.0,73.19068145751953,-57.36790466308594,-3.5350863933563232,Left
2956.00830078125,23276,1,1751.0,1776.0,1755.0,1771.0,1763.0,2153.0,1762.0,1867.0,73.19068145751953,-57.36790466308594,-3.5350863933563232,Left
2958.00830078125,23276,1,1767.0,1769.0,1755.0,1739.0,1751.0,2067.0,1765.0,1689.0,73.40866088867188,-57.348365783691406,-3.5757529735565186,Left
2960.00830078125,23276,1,1765.0,1757.0,1749.0,1733.0,1740.0,2136.0,1747.0,1817.0,73.40866088867188,-57.348365783691406,-3.5757529735565186,Left
2962.00830078125,23276,1,1765.0,1785.0,1753.0,1767.0,1765.0,1926.0,1763.0,1779.0,73.40866088867188,-57.348365783691406,-3.5757529735565186,Left
2964.00830078125,23276,1,1765.0,1781.0,1751.0,1782.0,1785.0,1635.0,1758.0,1783.0,73.40866088867188,-57.348365783691406,-3.5757529735565186,Left
2964.97314453125,23277,1,1767.0,1719.0,1737.0,1735.0,1746.0,1489.0,1764.0,1837.0,73.40866088867188,-57.348365783691406,-3.5757529735565186,Left
2966.97314453125,23277,1,1751.0,1791.0,1765.0,1767.0,1767.0,1647.0,1757.0,1866.0,73.40866088867188,-57.348365783691406,-3.5757529735565186,Left
2968.97314453125,23277,1,1751.0,1661.0,1764.0,1754.0,1677.0,1493.0,1756.0,1885.0,73.40866088867188,-57.348365783691406,-3.5757529735565186,Left
2970.97314453125,23277,1,1763.0,1811.0,1756.0,1764.0,1765.0,1561.0,1749.0,1875.0,73.40866088867188,-57.348365783691406,-3.5757529735565186,Left
2972.97314453125,23277,1,1749.0,1788.0,1773.0,1734.0,1759.0,1909.0,1765.0,1779.0,73.40866088867188,-57.348365783691406,-3.5757529735565186,Left
2972.80322265625,23278,1,1759.0,1726.0,1765.0,1779.0,1735.0,2021.0,1751.0,1734.0,73.40866088867188,-57.348365783691406,-3.5757529735565186,Left
2974.80322265625,23278,1,1763.0,1733.0,1753.0,1725.0,1803.0,1917.0,1757.0,1831.0,73.40866088867188,-57.348365783691406,-3.5757529735565186,Left
2976.80322265625,23278,1,1758.0,1763.0,1741.0,1769.0,1704.0,1961.0,1763.0,1693.0,73.40866088867188,-57.348365783691406,-3.5757529735565186,Left
2978.80322265625,23278,1,1756.0,1765.0,1755.0,1767.0,1800.0,1797.0,1767.0,1615.0,73.40866088867188,-57.348365783691406,-3.5757529735565186,Left
2980.80322265625,23278,1,1751.0,1728.0,1765.0,1739.0,1752.0,1397.0,1761.0,1661.0,73.40866088867188,-57.348365783691406,-3.5757529735565186,Left
2989.4599609375,23279,1,1758.0,1749.0,1746.0,1765.0,1771.0,1427.0,1765.0,1779.0,73.40866088867188,-57.348365783691406,-3.5757529735565186,Left
2991.4599609375,23279,1,1749.0,1800.0,1721.0,1757.0,1735.0,1609.0,1765.0,1747.0,73.40866088867188,-57.348365783691406,-3.5757529735565186,Left
2993.4599609375,23279,1,1758.0,1797.0,1784.0,1799.0,1747.0,1741.0,1765.0,1741.0,73.40866088867188,-57.348365783691406,-3.5757529735565186,Left
2995.4599609375,23279,1,1762.0,1775.0,1787.0,1757.0,1768.0,1839.0,1763.0,1737.0,73.40866088867188,-57.348365783691406,-3.5757529735565186,Left
2997.4599609375,23279,1,1756.0,1741.0,1763.0,1691.0,1739.0,2245.0,1756.0,1704.0,73.40866088867188,-57.348365783691406,-3.5757529735565186,Left
2998.64599609375,23280,1,1749.0,1658.0,1753.0,1694.0,1742.0,2079.0,1749.0,1755.0,73.40866088867188,-57.348365783691406,-3.5757529735565186,Left
3000.64599609375,23280,1,1765.0,1721.0,1752.0,1758.0,1763.0,2031.0,1765.0,1781.0,73.40866088867188,-57.348365783691406,-3.5757529735565186,Left
3002.64599609375,23280,1,1761.0,1744.0,1747.0,1775.0,1746.0,1976.0,1761.0,1725.0,73.40866088867188,-57.348365783691406,-3.5757529735565186,Left
3004.64599609375,23280,1,1765.0,1769.0,1768.0,1788.0,1767.0,1865.0,1747.0,1757.0,73.40866088867188,-57.348365783691406,-3.5757529735565186,Left
3006.64599609375,23280,1,1763.0,1757.0,1763.0,1748.0,1753.0,1385.0,1765.0,1647.0,73.40866088867188,-57.348365783691406,-3.5757529735565186,Left
3004.218017578125,23281,1,1766.0,1796.0,1753.0,1791.0,1751.0,1563.0,1768.0,1705.0,73.40866088867188,-57.348365783691406,-3.5757529735565186,Left
3006.218017578125,23281,1,1749.0,1755.0,1757.0,1770.0,1700.0,1593.0,1757.0,1647.0,73.40866088867188,-57.348365783691406,-3.5757529735565186,Left
3008.218017578125,23281,1,1756.0,1768.0,1747.0,1741.0,1780.0,1498.0,1746.0,1741.0,73.40866088867188,-57.348365783691406,-3.5757529735565186,Left
3010.218017578125,23281,1,1766.0,1755.0,1751.0,1739.0,1743.0,1559.0,1945.0,1725.0,73.40866088867188,-57.348365783691406,-3.5757529735565186,Left
3012.218017578125,23281,1,1763.0,1719.0,1751.0,1753.0,1716.0,1945.0,2921.0,1811.0,73.40866088867188,-57.348365783691406,-3.5757529735565186,Left
3013.2353515625,23282,1,1751.0,1737.0,1775.0,1747.0,1737.0,1973.0,3692.0,1775.0,73.40866088867188,-57.348365783691406,-3.5757529735565186,Left
3015.2353515625,23282,1,1709.0,1715.0,1755.0,1741.0,1766.0,1699.0,3836.0,1705.0,73.40866088867188,-57.348365783691406,-3.5757529735565186,Left
3017.2353515625,23282,1,1756.0,1753.0,1738.0,1737.0,1759.0,1831.0,3839.0,1675.0,73.40866088867188,-57.348365783691406,-3.5757529735565186,Left
3019.2353515625,23282,1,1764.0,1819.0,1762.0,1775.0,1771.0,1757.0,3835.0,1742.0,73.40866088867188,-57.348365783691406,-3.5757529735565186,Left
3021.2353515625,23282,1,1752.0,1771.0,1747.0,1753.0,1739.0,1343.0,3845.0,1823.0,74.30609130859375,-57.00972366333008,-3.329061508178711,Left
3023.662109375,23283,1,1758.0,1750.0,1752.0,1752.0,1751.0,1373.0,3850.0,1768.0,74.30609130859375,-57.00972366333008,-3.329061508178711,Left
3025.662109375,23283,1,1751.0,1767.0,1762.0,1780.0,1727.0,1587.0,3427.0,1717.0,74.30609130859375,-57.00972366333008,-3.329061508178711,Left
3027.662109375,23283,1,1767.0,1799.0,1753.0,1747.0,1764.0,1637.0,2805.0,1661.0,74.30609130859375,-57.00972366333008,-3.329061508178711,Left
3029.662109375,23283,1,1751.0,1733.0,1752.0,1791.0,1757.0,1752.0,1757.0,1613.0,74.30609130859375,-57.00972366333008,-3.329061508178711,Left
3031.662109375,23283,1,1763.0,1781.0,1754.0,1755.0,1721.0,2168.0,777.0,1691.0,74.30609130859375,-57.00972366333008,-3.329061508178711,Left
3033.945068359375,23284,1,1752.0,1759.0,1771.0,1787.0,1771.0,2163.0,0.0,1803.0,74.30609130859375,-57.00972366333008,-3.329061508178711,Left
3035.945068359375,23284,1,1762.0,1832.0,1741.0,1775.0,1787.0,2025.0,0.0,1763.0,74.30609130859375,-57.00972366333008,-3.329061508178711,Left
3037.945068359375,23284,1,1765.0,1753.0,1739.0,1705.0,1709.0,2029.0,0.0,1644.0,74.30609130859375,-57.00972366333008,-3.329061508178711,Left
3039.945068359375,23284,1,1765.0,1758.0,1753.0,1751.0,1721.0,1961.0,169.0,1668.0,74.30609130859375,-57.00972366333008,-3.329061508178711,Left
3041.945068359375,23284,1,1752.0,1684.0,1767.0,1783.0,1759.0,1553.0,457.0,1747.0,74.30609130859375,-57.00972366333008,-3.329061508178711,Left
3044.13916015625,23285,1,1749.0,1645.0,1755.0,1735.0,1719.0,1553.0,725.0,1671.0,74.30609130859375,-57.00972366333008,-3.329061508178711,Left
3046.13916015625,23285,1,1752.0,1773.0,1763.0,1747.0,1765.0,1623.0,921.0,1765.0,74.30609130859375,-57.00972366333008,-3.329061508178711,Left
3048.13916015625,23285,1,1767.0,1773.0,1735.0,1783.0,1724.0,1657.0,1077.0,1727.0,74.30609130859375,-57.00972366333008,-3.329061508178711,Left
3050.13916015625,23285,1,1764.0,1715.0,1764.0,1721.0,1702.0,1759.0,1199.0,1791.0,74.30609130859375,-57.00972366333008,-3.329061508178711,Left
3052.13916015625,23285,1,1765.0,1748.0,1757.0,1748.0,1781.0,2102.0,1293.0,1811.0,74.30609130859375,-57.00972366333008,-3.329061508178711,Left
3051.01025390625,23286,1,1759.0,1759.0,1771.0,1762.0,1741.0,2041.0,1402.0,1863.0,74.30609130859375,-57.00972366333008,-3.329061508178711,Left
3053.01025390625,23286,1,1753.0,1799.0,1741.0,1801.0,1741.0,1861.0,1459.0,1750.0,74.30609130859375,-57.00972366333008,-3.329061508178711,Left
3055.01025390625,23286,1,1763.0,1819.0,1748.0,1802.0,1790.0,1885.0,1519.0,1781.0,74.30609130859375,-57.00972366333008,-3.329061508178711,Left
3057.01025390625,23286,1,1765.0,1699.0,1756.0,1717.0,1705.0,1701.0,1553.0,1749.0,74.30609130859375,-57.00972366333008,-3.329061508178711,Left
3059.01025390625,23286,1,1751.0,1735.0,1771.0,1747.0,1719.0,1423.0,1607.0,1724.0,74.30609130859375,-57.00972366333008,-3.329061508178711,Left
3063.34326171875,23287,1,1751.0,1785.0,1755.0,1779.0,1755.0,1309.0,1629.0,1778.0,74.30609130859375,-57.00972366333008,-3.329061508178711,Left
3065.34326171875,23287,1,1765.0,1768.0,1751.0,1736.0,1765.0,1499.0,1657.0,1751.0,74.30609130859375,-57.00972366333008,-3.329061508178711,Left
3067.34326171875,23287,1,1763.0,1759.0,1763.0,1749.0,1763.0,1517.0,1673.0,1767.0,74.30609130859375,-57.00972366333008,-3.329061508178711,Left
3069.34326171875,23287,1,1758.0,1757.0,1768.0,1789.0,1787.0,1675.0,1677.0,1799.0,74.30609130859375,-57.00972366333008,-3.329061508178711,Left
3071.34326171875,23287,1,1762.0,1763.0,1754.0,1813.0,1765.0,2029.0,1708.0,1774.0,74.30609130859375,-57.00972366333008,-3.329061508178711,Left
3071.603271484375,23288,1,1763.0,1751.0,1755.0,1791.0,1727.0,1916.0,1685.0,1647.0,74.30609130859375,-57.00972366333008,-3.329061508178711,Left
3073.603271484375,23288,1,1765.0,1791.0,1765.0,1772.0,1769.0,1824.0,1727.0,1725.0,74.30609130859375,-57.00972366333008,-3.329061508178711,Left
3075.603271484375,23288,1,1753.0,1787.0,1755.0,1768.0,1715.0,1797.0,1712.0,1798.0,74.30609130859375,-57.00972366333008,-3.329061508178711,Left
3077.603271484375,23288,1,1763.0,1701.0,1747.0,1763.0,1741.0,1740.0,1733.0,1755.0,74.30609130859375,-57.00972366333008,-3.329061508178711,Left
3079.603271484375,23288,1,1751.0,1785.0,1755.0,1768.0,1787.0,1466.0,1747.0,1849.0,74.30609130859375,-57.00972366333008,-3.329061508178711,Left
3082.084228515625,23289,1,1763.0,1723.0,1755.0,1696.0,1749.0,1470.0,1743.0,1656.0,74.30609130859375,-57.00972366333008,-3.329061508178711,Left
3084.084228515625,23289,1,1749.0,1802.0,1739.0,1741.0,1771.0,1596.0,1749.0,1623.0,74.43766021728516,-56.91878890991211,-2.352940797805786,Left
3086.084228515625,23289,1,1759.0,1787.0,1752.0,1742.0,1676.0,1627.0,1734.0,1736.0,74.43766021728516,-56.91878890991211,-2.352940797805786,Left
3088.084228515625,23289,1,1751.0,1699.0,1761.0,1755.0,1797.0,1810.0,1753.0,1708.0,74.43766021728516,-56.91878890991211,-2.352940797805786,Left
3090.084228515625,23289,1,1753.0,1726.0,1748.0,1768.0,1691.0,2191.0,1753.0,1740.0,74.43766021728516,-56.91878890991211,-2.352940797805786,Left
3104.262451171875,23290,1,1747.0,1688.0,1732.0,1765.0,1769.0,2263.0,1751.0,1704.0,74.43766021728516,-56.91878890991211,-2.352940797805786,Left
3106.262451171875,23290,1,1763.0,1739.0,1785.0,1739.0,1693.0,2055.0,1755.0,1741.0,74.43766021728516,-56.91878890991211,-2.352940797805786,Left
3108.262451171875,23290,1,1763.0,1801.0,1751.0,1755.0,1763.0,2010.0,1755.0,1661.0,74.43766021728516,-56.91878890991211,-2.352940797805786,Left
3110.262451171875,23290,1,1765.0,1769.0,1717.0,1772.0,1732.0,1891.0,1757.0,1704.0,74.43766021728516,-56.91878890991211,-2.352940797805786,Left
3112.262451171875,23290,1,1759.0,1773.0,1755.0,1773.0,1755.0,1503.0,1747.0,1788.0,74.43766021728516,-56.91878890991211,-2.352940797805786,Left
3105.105224609375,23291,1,1765.0,1818.0,1800.0,1811.0,1747.0,1493.0,1765.0,1845.0,74.43766021728516,-56.91878890991211,-2.352940797805786,Left
3107.105224609375,23291,1,1764.0,1753.0,1791.0,1763.0,1719.0,1661.0,1764.0,1891.0,74.43766021728516,-56.91878890991211,-2.352940797805786,Left
3109.105224609375,23291,1,1765.0,1717.0,1761.0,1740.0,1689.0,1579.0,1755.0,1827.0,74.43766021728516,-56.91878890991211,-2.352940797805786,Left
3111.105224609375,23291,1,1764.0,1747.0,1734.0,1763.0,1791.0,1644.0,1763.0,1865.0,74.43766021728516,-56.91878890991211,-2.352940797805786,Left
3113.105224609375,23291,1,1763.0,1781.0,1751.0,1779.0,1827.0,2123.0,1767.0,1853.0,74.43766021728516,-56.91878890991211,-2.352940797805786,Left
3142.745361328125,23292,1,1765.0,1753.0,1750.0,1780.0,1752.0,2065.0,1754.0,1819.0,74.43766021728516,-56.91878890991211,-2.352940797805786,Left
3144.745361328125,23292,1,1765.0,1715.0,1755.0,1753.0,1734.0,1895.0,1765.0,1683.0,74.43766021728516,-56.91878890991211,-2.352940797805786,Left
3146.745361328125,23292,1,1763.0,1723.0,1759.0,1720.0,1781.0,1993.0,2021.0,1737.0,74.43766021728516,-56.91878890991211,-2.352940797805786,Left
3148.745361328125,23292,1,1765.0,1769.0,1740.0,1787.0,1725.0,1737.0,2222.0,1785.0,74.43766021728516,-56.91878890991211,-2.352940797805786,Left
3150.745361328125,23292,1,1764.0,1715.0,1779.0,1749.0,1717.0,1403.0,1615.0,1625.0,74.43766021728516,-56.91878890991211,-2.352940797805786,Left
3143.840087890625,23293,1,1761.0,1797.0,1737.0,1700.0,1775.0,1452.0,1642.0,1556.0,74.43766021728516,-56.91878890991211,-2.352940797805786,Left
3145.840087890625,23293,1,1765.0,1763.0,1742.0,1762.0,1764.0,1670.0,1661.0,1577.0,74.43766021728516,-56.91878890991211,-2.352940797805786,Left
3147.840087890625,23293,1,1749.0,1763.0,1727.0,1780.0,1735.0,1619.0,1689.0,1636.0,74.43766021728516,-56.91878890991211,-2.352940797805786,Left
3149.840087890625,23293,1,1767.0,1845.0,1806.0,1802.0,1781.0,1771.0,2365.0,1653.0,74.43766021728516,-56.91878890991211,-2.352940797805786,Left
3151.840087890625,23293,1,1766.0,1784.0,1773.0,1774.0,1784.0,2094.0,3695.0,1832.0,74.43766021728516,-56.91878890991211,-2.352940797805786,Left
3144.43017578125,23294,1,1763.0,1622.0,1767.0,1763.0,1691.0,2041.0,3836.0,1780.0,74.43766021728516,-56.91878890991211,-2.352940797805786,Left
3146.43017578125,23294,1,1764.0,1739.0,1738.0,1763.0,1733.0,1915.0,3836.0,1781.0,74.43766021728516,-56.91878890991211,-2.352940797805786,Left
3148.43017578125,23294,1,1764.0,1737.0,1726.0,1749.0,1759.0,1887.0,3831.0,1723.0,74.43766021728516,-56.91878890991211,-2.352940797805786,Left
3150.43017578125,23294,1,1766.0,1741.0,1741.0,1752.0,1768.0,1783.0,3817.0,1783.0,74.43766021728516,-56.91878890991211,-2.352940797805786,Left
3152.43017578125,23294,1,1763.0,1811.0,1751.0,1751.0,1736.0,1429.0,3845.0,1752.0,74.43766021728516,-56.91878890991211,-2.352940797805786,Left
3144.892333984375,23295,1,1765.0,1724.0,1751.0,1753.0,1753.0,1469.0,3827.0,1779.0,74.43766021728516,-56.91878890991211,-2.352940797805786,Left
3146.892333984375,23295,1,1759.0,1819.0,1753.0,1768.0,1741.0,1683.0,3839.0,1782.0,74.43766021728516,-56.91878890991211,-2.352940797805786,Left
3148.892333984375,23295,1,1756.0,1785.0,1765.0,1807.0,1752.0,1723.0,3817.0,1721.0,74.43766021728516,-56.91878890991211,-2.352940797805786,Left
3150.892333984375,23295,1,1763.0,1659.0,1725.0,1717.0,1737.0,1785.0,0.0,1752.0,74.43766021728516,-56.91878890991211,-2.352940797805786,Left
3152.892333984375,23295,1,1757.0,1741.0,1751.0,1771.0,1728.0,2175.0,0.0,1780.0,74.28156280517578,-56.99966812133789,-1.6837576627731323,Left
3151.602294921875,23296,1,1763.0,1749.0,1748.0,1750.0,1774.0,2073.0,0.0,1762.0,74.28156280517578,-56.99966812133789,-1.6837576627731323,Left
3153.602294921875,23296,1,1763.0,1749.0,1763.0,1757.0,1727.0,1929.0,0.0,1811.0,74.28156280517578,-56.99966812133789,-1.6837576627731323,Left
3155.602294921875,23296,1,1765.0,1787.0,1791.0,1788.0,1775.0,1981.0,0.0,1871.0,74.28156280517578,-56.99966812133789,-1.6837576627731323,Left
3157.602294921875,23296,1,1751.0,1773.0,1755.0,1781.0,1723.0,1869.0,0.0,1784.0,74.28156280517578,-56.99966812133789,-1.6837576627731323,Left
3159.602294921875,23296,1,1755.0,1727.0,1749.0,1757.0,1763.0,1399.0,0.0,1879.0,74.28156280517578,-56.99966812133789,-1.6837576627731323,Left
3162.6962890625,23297,1,1758.0,1758.0,1737.0,1779.0,1828.0,1387.0,248.0,1928.0,74.28156280517578,-56.99966812133789,-1.6837576627731323,Left
3164.6962890625,23297,1,1763.0,1803.0,1749.0,1806.0,1755.0,1531.0,519.0,1810.0,74.28156280517578,-56.99966812133789,-1.6837576627731323,Left
3166.6962890625,23297,1,1761.0,1674.0,1737.0,1737.0,1719.0,1493.0,727.0,1716.0,74.28156280517578,-56.99966812133789,-1.6837576627731323,Left
3168.6962890625,23297,1,1755.0,1767.0,1769.0,1754.0,1724.0,1529.0,917.0,1692.0,74.28156280517578,-56.99966812133789,-1.6837576627731323,Left
3170.6962890625,23297,1,1751.0,1769.0,1753.0,1740.0,1702.0,1914.0,1081.0,1695.0,74.28156280517578,-56.99966812133789,-1.6837576627731323,Left
3283.501220703125,23298,1,1765.0,1818.0,1734.0,1855.0,1753.0,1993.0,1199.0,1663.0,74.28156280517578,-56.99966812133789,-1.6837576627731323,Left
3285.501220703125,23298,1,1767.0,1741.0,1775.0,1781.0,1781.0,1807.0,1422.0,1687.0,74.28156280517578,-56.99966812133789,-1.6837576627731323,Left
3287.501220703125,23298,1,1767.0,1734.0,1756.0,1738.0,1763.0,1775.0,2379.0,1705.0,74.28156280517578,-56.99966812133789,-1.6837576627731323,Left
3289.501220703125,23298,1,1763.0,1747.0,1752.0,1695.0,1737.0,1711.0,3596.0,1736.0,74.28156280517578,-56.99966812133789,-1.6837576627731323,Left
3291.501220703125,23298,1,1756.0,1748.0,1771.0,1757.0,1707.0,1395.0,3852.0,1659.0,74.28156280517578,-56.99966812133789,-1.6837576627731323,Left
3284.630126953125,23299,1,1756.0,1733.0,1741.0,1737.0,1776.0,1288.0,3859.0,1711.0,74.28156280517578,-56.99966812133789,-1.6837576627731323,Left
3286.630126953125,23299,1,1763.0,1775.0,1755.0,1752.0,1737.0,1531.0,3839.0,1671.0,74.28156280517578,-56.99966812133789,-1.6837576627731323,Left
3288.630126953125,23299,1,1751.0,1789.0,1763.0,1749.0,1759.0,1524.0,3847.0,1654.0,74.28156280517578,-56.99966812133789,-1.6837576627731323,Left
3290.630126953125,23299,1,1756.0,1753.0,1767.0,1788.0,1750.0,1657.0,1951.0,1629.0,74.28156280517578,-56.99966812133789,-1.6837576627731323,Left
3292.630126953125,23299,1,1763.0,1716.0,1763.0,1781.0,1742.0,2043.0,0.0,1780.0,74.28156280517578,-56.99966812133789,-1.6837576627731323,Left
3285.234130859375,23300,1,1763.0,1785.0,1749.0,1749.0,1771.0,2057.0,0.0,1835.0,74.28156280517578,-56.99966812133789,-1.6837576627731323,Left
3287.234130859375,23300,1,1766.0,1806.0,1763.0,1769.0,1773.0,1819.0,0.0,1703.0,74.28156280517578,-56.99966812133789,-1.6837576627731323,Left
3289.234130859375,23300,1,1751.0,1790.0,1758.0,1771.0,1717.0,1899.0,345.0,1819.0,74.28156280517578,-56.99966812133789,-1.6837576627731323,Left
3291.234130859375,23300,1,1763.0,1764.0,1769.0,1772.0,1771.0,1831.0,603.0,1759.0,74.28156280517578,-56.99966812133789,-1.6837576627731323,Left
3293.234130859375,23300,1,1751.0,1691.0,1751.0,1753.0,1739.0,1493.0,840.0,1861.0,74.28156280517578,-56.99966812133789,-1.6837576627731323,Left
3285.826171875,23301,1,1759.0,1775.0,1767.0,1779.0,1749.0,1323.0,2045.0,1771.0,74.28156280517578,-56.99966812133789,-1.6837576627731323,Left
3287.826171875,23301,1,1763.0,1719.0,1751.0,1685.0,1759.0,1471.0,2852.0,1753.0,74.28156280517578,-56.99966812133789,-1.6837576627731323,Left
3289.826171875,23301,1,1755.0,1693.0,1764.0,1724.0,1741.0,1481.0,3773.0,1714.0,74.28156280517578,-56.99966812133789,-1.6837576627731323,Left
3291.826171875,23301,1,1763.0,1781.0,1785.0,1789.0,1768.0,1723.0,3837.0,1869.0,74.28156280517578,-56.99966812133789,-1.6837576627731323,Left
3293.826171875,23301,1,1765.0,1811.0,1772.0,1810.0,1767.0,2138.0,3817.0,1932.0,74.28156280517578,-56.99966812133789,-1.6837576627731323,Left
3286.353271484375,23302,1,1758.0,1719.0,1739.0,1726.0,1717.0,2175.0,3837.0,1775.0,74.28156280517578,-56.99966812133789,-1.6837576627731323,Left
3288.353271484375,23302,1,1764.0,1813.0,1748.0,1755.0,1737.0,1915.0,3851.0,1814.0,74.57722473144531,-56.94620132446289,-1.4472042322158813,Left
3290.353271484375,23302,1,1765.0,1816.0,1749.0,1769.0,1751.0,1995.0,3837.0,1737.0,74.57722473144531,-56.94620132446289,-1.4472042322158813,Left
3292.353271484375,23302,1,1763.0,1756.0,1738.0,1813.0,1781.0,1861.0,3850.0,1691.0,74.57722473144531,-56.94620132446289,-1.4472042322158813,Left
3294.353271484375,23302,1,1758.0,1640.0,1768.0,1775.0,1762.0,1438.0,0.0,1703.0,74.57722473144531,-56.94620132446289,-1.4472042322158813,Left
3286.925048828125,23303,1,1755.0,1759.0,1721.0,1763.0,1765.0,1511.0,0.0,1721.0,74.57722473144531,-56.94620132446289,-1.4472042322158813,Left
3288.925048828125,23303,1,1765.0,1769.0,1727.0,1749.0,1766.0,1660.0,0.0,1589.0,74.57722473144531,-56.94620132446289,-1.4472042322158813,Left
3290.925048828125,23303,1,1756.0,1787.0,1782.0,1727.0,1723.0,1566.0,0.0,1715.0,74.57722473144531,-56.94620132446289,-1.4472042322158813,Left
3292.925048828125,23303,1,1759.0,1752.0,1785.0,1755.0,1757.0,1770.0,0.0,1802.0,74.57722473144531,-56.94620132446289,-1.4472042322158813,Left
3294.925048828125,23303,1,1751.0,1753.0,1772.0,1779.0,1775.0,2169.0,183.0,1919.0,74.57722473144531,-56.94620132446289,-1.4472042322158813,Left
3287.46923828125,23304,1,1750.0,1773.0,1735.0,1775.0,1735.0,2111.0,495.0,1845.0,74.57722473144531,-56.94620132446289,-1.4472042322158813,Left
3289.46923828125,23304,1,1759.0,1735.0,1756.0,1737.0,1755.0,1869.0,712.0,1519.0,74.57722473144531,-56.94620132446289,-1.4472042322158813,Left
3291.46923828125,23304,1,1763.0,1750.0,1751.0,1747.0,1757.0,1864.0,910.0,1739.0,74.57722473144531,-56.94620132446289,-1.4472042322158813,Left
3293.46923828125,23304,1,1751.0,1789.0,1758.0,1792.0,1783.0,1625.0,1064.0,1717.0,74.57722473144531,-56.94620132446289,-1.4472042322158813,Left
3295.46923828125,23304,1,1759.0,1747.0,1751.0,1755.0,1750.0,1387.0,1189.0,1678.0,74.57722473144531,-56.94620132446289,-1.4472042322158813,Left
3287.92822265625,23305,1,1757.0,1762.0,1749.0,1774.0,1753.0,1467.0,1298.0,1721.0,74.57722473144531,-56.94620132446289,-1.4472042322158813,Left
3289.92822265625,23305,1,1759.0,1763.0,1779.0,1791.0,1755.0,1738.0,1383.0,1753.0,74.57722473144531,-56.94620132446289,-1.4472042322158813,Left
3291.92822265625,23305,1,1763.0,1785.0,1739.0,1772.0,1757.0,1663.0,1455.0,1751.0,74.57722473144531,-56.94620132446289,-1.4472042322158813,Left
3293.92822265625,23305,1,1739.0,1779.0,1742.0,1742.0,1734.0,1740.0,2008.0,1813.0,74.57722473144531,-56.94620132446289,-1.4472042322158813,Left
3295.92822265625,23305,1,1735.0,1728.0,1715.0,1757.0,1755.0,1973.0,3154.0,1838.0,74.57722473144531,-56.94620132446289,-1.4472042322158813,Left
3288.4140625,23306,1,1757.0,1688.0,1770.0,1721.0,1737.0,2019.0,3848.0,1768.0,74.57722473144531,-56.94620132446289,-1.4472042322158813,Left
3290.4140625,23306,1,1763.0,1700.0,1754.0,1753.0,1736.0,1773.0,3839.0,1733.0,74.57722473144531,-56.94620132446289,-1.4472042322158813,Left
3292.4140625,23306,1,1762.0,1796.0,1736.0,1775.0,1769.0,1749.0,3817.0,1823.0,74.57722473144531,-56.94620132446289,-1.4472042322158813,Left
3294.4140625,23306,1,1749.0,1817.0,1757.0,1784.0,1762.0,1653.0,3836.0,1832.0,74.57722473144531,-56.94620132446289,-1.4472042322158813,Left
3296.4140625,23306,1,1765.0,1733.0,1749.0,1767.0,1739.0,1299.0,3833.0,1779.0,74.57722473144531,-56.94620132446289,-1.4472042322158813,Left
3288.730224609375,23307,1,1764.0,1703.0,1743.0,1701.0,1765.0,1273.0,3815.0,1784.0,74.57722473144531,-56.94620132446289,-1.4472042322158813,Left
3290.730224609375,23307,1,1765.0,1801.0,1756.0,1747.0,1749.0,1379.0,3837.0,1815.0,74.57722473144531,-56.94620132446289,-1.4472042322158813,Left
3292.730224609375,23307,1,1750.0,1767.0,1775.0,1774.0,1734.0,1384.0,3813.0,1723.0,74.57722473144531,-56.94620132446289,-1.4472042322158813,Left
3294.730224609375,23307,1,1751.0,1725.0,1755.0,1741.0,1768.0,1549.0,3848.0,1613.0,74.57722473144531,-56.94620132446289,-1.4472042322158813,Left
3296.730224609375,23307,1,1765.0,1754.0,1715.0,1726.0,1752.0,1951.0,3836.0,1605.0,74.57722473144531,-56.94620132446289,-1.4472042322158813,Left
3289.048095703125,23308,1,1763.0,1776.0,1785.0,1783.0,1762.0,2084.0,2908.0,1719.0,74.57722473144531,-56.94620132446289,-1.4472042322158813,Left
3291.048095703125,23308,1,1763.0,1752.0,1791.0,1737.0,1752.0,2027.0,1817.0,1870.0,74.57722473144531,-56.94620132446289,-1.4472042322158813,Left
3293.048095703125,23308,1,1749.0,1784.0,1752.0,1764.0,1746.0,1925.0,1211.0,1963.0,74.57722473144531,-56.94620132446289,-1.4472042322158813,Left
3295.048095703125,23308,1,1757.0,1757.0,1747.0,1767.0,1767.0,1737.0,520.0,1961.0,74.57722473144531,-56.94620132446289,-1.4472042322158813,Left
3297.048095703125,23308,1,1750.0,1765.0,1743.0,1767.0,1765.0,1443.0,1131.0,1912.0,75.13494873046875,-56.91629409790039,-1.5200095176696777,Left
3289.485107421875,23309,1,1755.0,1717.0,1779.0,1735.0,1627.0,1541.0,1950.0,1845.0,75.13494873046875,-56.91629409790039,-1.5200095176696777,Left
3291.485107421875,23309,1,1750.0,1751.0,1767.0,1705.0,1799.0,1639.0,2315.0,1829.0,75.13494873046875,-56.91629409790039,-1.5200095176696777,Left
3293.485107421875,23309,1,1759.0,1789.0,1747.0,1741.0,1811.0,1688.0,2716.0,1695.0,75.13494873046875,-56.91629409790039,-1.5200095176696777,Left
3295.485107421875,23309,1,1763.0,1802.0,1775.0,1787.0,1743.0,1881.0,2961.0,1625.0,75.13494873046875,-56.91629409790039,-1.5200095176696777,Left
3297.485107421875,23309,1,1763.0,1747.0,1768.0,1821.0,1693.0,2247.0,2955.0,1809.0,75.13494873046875,-56.91629409790039,-1.5200095176696777,Left
3292.214111328125,23310,1,1735.0,1782.0,1764.0,1785.0,1783.0,2107.0,2952.0,1951.0,75.13494873046875,-56.91629409790039,-1.5200095176696777,Left
3294.214111328125,23310,1,1751.0,1755.0,1723.0,1809.0,1774.0,1943.0,3283.0,1741.0,75.13494873046875,-56.91629409790039,-1.5200095176696777,Left
3296.214111328125,23310,1,1767.0,1716.0,1749.0,1709.0,1679.0,2008.0,3372.0,1721.0,75.13494873046875,-56.91629409790039,-1.5200095176696777,Left
3298.214111328125,23310,1,1752.0,1709.0,1759.0,1704.0,1727.0,1891.0,3281.0,1701.0,75.13494873046875,-56.91629409790039,-1.5200095176696777,Left
3300.214111328125,23310,1,1764.0,1746.0,1755.0,1769.0,1769.0,1507.0,3485.0,1781.0,75.13494873046875,-56.91629409790039,-1.5200095176696777,Left
3304.115234375,23311,1,1750.0,1808.0,1741.0,1789.0,1741.0,1607.0,731.0,1515.0,75.13494873046875,-56.91629409790039,-1.5200095176696777,Left
3306.115234375,23311,1,1757.0,1799.0,1773.0,1768.0,1752.0,1579.0,0.0,1691.0,75.13494873046875,-56.91629409790039,-1.5200095176696777,Left
3308.115234375,23311,1,1765.0,1780.0,1766.0,1781.0,1755.0,1517.0,0.0,1657.0,75.13494873046875,-56.91629409790039,-1.5200095176696777,Left
3310.115234375,23311,1,1751.0,1815.0,1741.0,1781.0,1726.0,1743.0,0.0,1737.0,75.13494873046875,-56.91629409790039,-1.5200095176696777,Left
3312.115234375,23311,1,1764.0,1771.0,1747.0,1799.0,1691.0,2015.0,303.0,1779.0,75.13494873046875,-56.91629409790039,-1.5200095176696777,Left
3384.43115234375,23312,1,1763.0,1712.0,1769.0,1739.0,1829.0,1995.0,1315.0,1525.0,75.13494873046875,-56.91629409790039,-1.5200095176696777,Left
3386.43115234375,23312,1,1752.0,1689.0,1736.0,1699.0,1765.0,1897.0,1911.0,1688.0,75.13494873046875,-56.91629409790039,-1.5200095176696777,Left
3388.43115234375,23312,1,1763.0,1710.0,1763.0,1739.0,1721.0,1976.0,2169.0,1816.0,75.13494873046875,-56.91629409790039,-1.5200095176696777,Left
3390.43115234375,23312,1,1766.0,1737.0,1743.0,1751.0,1735.0,1849.0,2603.0,1811.0,75.13494873046875,-56.91629409790039,-1.5200095176696777,Left
3392.43115234375,23312,1,1767.0,1811.0,1755.0,1773.0,1737.0,1557.0,2953.0,1787.0,75.13494873046875,-56.91629409790039,-1.5200095176696777,Left
3385.437255859375,23313,1,1759.0,1767.0,1763.0,1785.0,1759.0,1576.0,1694.0,1765.0,75.13494873046875,-56.91629409790039,-1.5200095176696777,Left
3387.437255859375,23313,1,1751.0,1781.0,1771.0,1783.0,1753.0,1789.0,0.0,1811.0,75.13494873046875,-56.91629409790039,-1.5200095176696777,Left
3389.437255859375,23313,1,1765.0,1788.0,1773.0,1772.0,1755.0,1739.0,0.0,1836.0,75.13494873046875,-56.91629409790039,-1.5200095176696777,Left
3391.437255859375,23313,1,1763.0,1830.0,1747.0,1791.0,1764.0,1869.0,0.0,1839.0,75.13494873046875,-56.91629409790039,-1.5200095176696777,Left
3393.437255859375,23313,1,1756.0,1711.0,1756.0,1727.0,1747.0,2195.0,0.0,1775.0,75.13494873046875,-56.91629409790039,-1.5200095176696777,Left
3385.912109375,23314,1,1756.0,1683.0,1749.0,1715.0,1750.0,2252.0,0.0,1691.0,75.13494873046875,-56.91629409790039,-1.5200095176696777,Left
3387.912109375,23314,1,1765.0,1751.0,1763.0,1759.0,1733.0,1992.0,0.0,1773.0,75.13494873046875,-56.91629409790039,-1.5200095176696777,Left
3389.912109375,23314,1,1764.0,1801.0,1757.0,1801.0,1749.0,1943.0,0.0,1791.0,75.13494873046875,-56.91629409790039,-1.5200095176696777,Left
3391.912109375,23314,1,1751.0,1771.0,1767.0,1766.0,1769.0,1691.0,0.0,1623.0,75.13494873046875,-56.91629409790039,-1.5200095176696777,Left
3393.912109375,23314,1,1763.0,1767.0,1765.0,1763.0,1717.0,1490.0,328.0,1695.0,75.13494873046875,-56.91629409790039,-1.5200095176696777,Left
3386.35009765625,23315,1,1767.0,1727.0,1756.0,1735.0,1739.0,1425.0,1653.0,1605.0,75.13494873046875,-56.91629409790039,-1.5200095176696777,Left
3388.35009765625,23315,1,1759.0,1788.0,1747.0,1709.0,1768.0,1479.0,2409.0,1709.0,75.42494201660156,-56.99671173095703,-1.8429946899414062,Left
3390.35009765625,23315,1,1761.0,1675.0,1752.0,1738.0,1679.0,1660.0,2903.0,1876.0,75.42494201660156,-56.99671173095703,-1.8429946899414062,Left
3392.35009765625,23315,1,1737.0,1736.0,1746.0,1706.0,1768.0,1883.0,3423.0,1883.0,75.42494201660156,-56.99671173095703,-1.8429946899414062,Left
3394.35009765625,23315,1,1763.0,1775.0,1736.0,1781.0,1753.0,2218.0,3754.0,1676.0,75.42494201660156,-56.99671173095703,-1.8429946899414062,Left
3386.734130859375,23316,1,1758.0,1788.0,1742.0,1784.0,1753.0,2142.0,3611.0,1940.0,75.42494201660156,-56.99671173095703,-1.8429946899414062,Left
3388.734130859375,23316,1,1759.0,1775.0,1779.0,1803.0,1749.0,1880.0,3367.0,1707.0,75.42494201660156,-56.99671173095703,-1.8429946899414062,Left
3390.734130859375,23316,1,1751.0,1752.0,1758.0,1765.0,1734.0,1903.0,2741.0,1800.0,75.42494201660156,-56.99671173095703,-1.8429946899414062,Left
3392.734130859375,23316,1,1765.0,1789.0,1752.0,1768.0,1817.0,1695.0,2569.0,1801.0,75.42494201660156,-56.99671173095703,-1.8429946899414062,Left
3394.734130859375,23316,1,1767.0,1757.0,1775.0,1749.0,1721.0,1358.0,2323.0,1687.0,75.42494201660156,-56.99671173095703,-1.8429946899414062,Left
3387.05322265625,23317,1,1763.0,1720.0,1779.0,1709.0,1749.0,1384.0,1517.0,1734.0,75.42494201660156,-56.99671173095703,-1.8429946899414062,Left
3389.05322265625,23317,1,1759.0,1761.0,1761.0,1755.0,1789.0,1561.0,1677.0,1647.0,75.42494201660156,-56.99671173095703,-1.8429946899414062,Left
3391.05322265625,23317,1,1759.0,1753.0,1757.0,1727.0,1757.0,1557.0,1820.0,1683.0,75.42494201660156,-56.99671173095703,-1.8429946899414062,Left
3393.05322265625,23317,1,1764.0,1675.0,1759.0,1734.0,1717.0,1832.0,2008.0,1722.0,75.42494201660156,-56.99671173095703,-1.8429946899414062,Left
3395.05322265625,23317,1,1747.0,1709.0,1758.0,1693.0,1751.0,2054.0,2088.0,1995.0,75.42494201660156,-56.99671173095703,-1.8429946899414062,Left
3387.373291015625,23318,1,1759.0,1833.0,1737.0,1829.0,1753.0,2123.0,2183.0,1999.0,75.42494201660156,-56.99671173095703,-1.8429946899414062,Left
3389.373291015625,23318,1,1757.0,1864.0,1753.0,1771.0,1769.0,1880.0,2231.0,1832.0,75.42494201660156,-56.99671173095703,-1.8429946899414062,Left
3391.373291015625,23318,1,1765.0,1741.0,1739.0,1759.0,1747.0,1931.0,1968.0,1735.0,75.42494201660156,-56.99671173095703,-1.8429946899414062,Left
3393.373291015625,23318,1,1757.0,1735.0,1736.0,1727.0,1700.0,1845.0,2420.0,1770.0,75.42494201660156,-56.99671173095703,-1.8429946899414062,Left
3395.373291015625,23318,1,1763.0,1754.0,1755.0,1740.0,1775.0,1527.0,2708.0,1749.0,75.42494201660156,-56.99671173095703,-1.8429946899414062,Left
3387.7109375,23319,1,1759.0,1775.0,1753.0,1748.0,1688.0,1596.0,3000.0,1749.0,75.42494201660156,-56.99671173095703,-1.8429946899414062,Left
3389.7109375,23319,1,1761.0,1775.0,1723.0,1725.0,1781.0,1737.0,3231.0,1806.0,75.42494201660156,-56.99671173095703,-1.8429946899414062,Left
3391.7109375,23319,1,1757.0,1703.0,1720.0,1748.0,1791.0,1704.0,3369.0,1813.0,75.42494201660156,-56.99671173095703,-1.8429946899414062,Left
3393.7109375,23319,1,1752.0,1752.0,1791.0,1803.0,1757.0,1963.0,3187.0,1739.0,75.42494201660156,-56.99671173095703,-1.8429946899414062,Left
3395.7109375,23319,1,1758.0,1799.0,1789.0,1854.0,1743.0,2264.0,2943.0,1627.0,75.42494201660156,-56.99671173095703,-1.8429946899414062,Left
3392.97412109375,23320,1,1767.0,1782.0,1741.0,1813.0,1735.0,2183.0,2171.0,1645.0,75.42494201660156,-56.99671173095703,-1.8429946899414062,Left
3394.97412109375,23320,1,1724.0,1735.0,1763.0,1638.0,1753.0,1835.0,1541.0,1629.0,75.42494201660156,-56.99671173095703,-1.8429946899414062,Left
3396.97412109375,23320,1,1763.0,1721.0,1747.0,1767.0,1736.0,1788.0,311.0,1655.0,75.42494201660156,-56.99671173095703,-1.8429946899414062,Left
3398.97412109375,23320,1,1759.0,1769.0,1751.0,1752.0,1804.0,1605.0,0.0,1597.0,75.42494201660156,-56.99671173095703,-1.8429946899414062,Left
3400.97412109375,23320,1,1752.0,1782.0,1755.0,1772.0,1717.0,1274.0,0.0,1621.0,75.42494201660156,-56.99671173095703,-1.8429946899414062,Left
3403.7001953125,23321,1,1757.0,1654.0,1736.0,1743.0,1721.0,1381.0,0.0,1757.0,75.42494201660156,-56.99671173095703,-1.8429946899414062,Left
3405.7001953125,23321,1,1751.0,1791.0,1752.0,1765.0,1764.0,1527.0,0.0,1698.0,75.42494201660156,-56.99671173095703,-1.8429946899414062,Left
3407.7001953125,23321,1,1750.0,1791.0,1763.0,1783.0,1759.0,1606.0,0.0,1835.0,75.42494201660156,-56.99671173095703,-1.8429946899414062,Left
3409.7001953125,23321,1,1767.0,1765.0,1775.0,1759.0,1766.0,1815.0,0.0,1893.0,75.42494201660156,-56.99671173095703,-1.8429946899414062,Left
3411.7001953125,23321,1,1765.0,1753.0,1756.0,1773.0,1755.0,2024.0,0.0,1881.0,75.72901153564453,-56.95181655883789,-1.9273244142532349,Left
3474.13818359375,23322,1,1764.0,1703.0,1735.0,1797.0,1752.0,1937.0,0.0,1605.0,75.72901153564453,-56.95181655883789,-1.9273244142532349,Left
3476.13818359375,23322,1,1766.0,1747.0,1719.0,1757.0,1754.0,1811.0,296.0,1727.0,75.72901153564453,-56.95181655883789,-1.9273244142532349,Left
3478.13818359375,23322,1,1752.0,1827.0,1763.0,1784.0,1767.0,1801.0,553.0,1657.0,75.72901153564453,-56.95181655883789,-1.9273244142532349,Left
3480.13818359375,23322,1,1762.0,1763.0,1768.0,1771.0,1733.0,1613.0,767.0,1589.0,75.72901153564453,-56.95181655883789,-1.9273244142532349,Left
3482.13818359375,23322,1,1767.0,1771.0,1791.0,1711.0,1721.0,1308.0,949.0,1645.0,75.72901153564453,-56.95181655883789,-1.9273244142532349,Left
3475.381103515625,23323,1,1755.0,1799.0,1736.0,1753.0,1774.0,1468.0,1107.0,1733.0,75.72901153564453,-56.95181655883789,-1.9273244142532349,Left
3477.381103515625,23323,1,1764.0,1733.0,1738.0,1711.0,1742.0,1565.0,1223.0,1740.0,75.72901153564453,-56.95181655883789,-1.9273244142532349,Left
3479.381103515625,23323,1,1757.0,1737.0,1738.0,1767.0,1758.0,1613.0,1309.0,1620.0,75.72901153564453,-56.95181655883789,-1.9273244142532349,Left
3481.381103515625,23323,1,1757.0,1769.0,1769.0,1788.0,1725.0,1862.0,1387.0,1636.0,75.72901153564453,-56.95181655883789,-1.9273244142532349,Left
3483.381103515625,23323,1,1764.0,1791.0,1785.0,1751.0,1779.0,2147.0,1452.0,1821.0,75.72901153564453,-56.95181655883789,-1.9273244142532349,Left
3476.008056640625,23324,1,1749.0,1769.0,1741.0,1767.0,1763.0,2110.0,2123.0,1749.0,75.72901153564453,-56.95181655883789,-1.9273244142532349,Left
3478.008056640625,23324,1,1763.0,1655.0,1727.0,1742.0,1721.0,2009.0,3021.0,1766.0,75.72901153564453,-56.95181655883789,-1.9273244142532349,Left
3480.008056640625,23324,1,1767.0,1725.0,1765.0,1772.0,1753.0,1963.0,3775.0,1831.0,75.72901153564453,-56.95181655883789,-1.9273244142532349,Left
3482.008056640625,23324,1,1763.0,1848.0,1741.0,1813.0,1775.0,1726.0,3833.0,1739.0,75.72901153564453,-56.95181655883789,-1.9273244142532349,Left
3484.008056640625,23324,1,1757.0,1772.0,1755.0,1755.0,1719.0,1453.0,3851.0,1784.0,75.72901153564453,-56.95181655883789,-1.9273244142532349,Left
3476.605224609375,23325,1,1759.0,1772.0,1759.0,1727.0,1767.0,1373.0,307.0,1788.0,75.72901153564453,-56.95181655883789,-1.9273244142532349,Left
3478.605224609375,23325,1,1752.0,1775.0,1764.0,1799.0,1784.0,1533.0,585.0,1843.0,75.72901153564453,-56.95181655883789,-1.9273244142532349,Left
3480.605224609375,23325,1,1765.0,1721.0,1749.0,1708.0,1739.0,1541.0,809.0,1773.0,75.72901153564453,-56.95181655883789,-1.9273244142532349,Left
3482.605224609375,23325,1,1749.0,1759.0,1770.0,1747.0,1835.0,1887.0,1011.0,1788.0,75.72901153564453,-56.95181655883789,-1.9273244142532349,Left
3484.605224609375,23325,1,1761.0,1784.0,1779.0,1745.0,1709.0,2136.0,1157.0,1661.0,75.72901153564453,-56.95181655883789,-1.9273244142532349,Left
3477.117919921875,23326,1,1756.0,1811.0,1725.0,1743.0,1767.0,1837.0,1287.0,1715.0,75.72901153564453,-56.95181655883789,-1.9273244142532349,Left
3479.117919921875,23326,1,1733.0,1655.0,1747.0,1741.0,1717.0,1689.0,1677.0,1757.0,75.72901153564453,-56.95181655883789,-1.9273244142532349,Left
3481.117919921875,23326,1,1747.0,1663.0,1775.0,1689.0,1723.0,1717.0,2745.0,1787.0,75.72901153564453,-56.95181655883789,-1.9273244142532349,Left
3483.117919921875,23326,1,1743.0,1701.0,1765.0,1723.0,1751.0,1357.0,3629.0,1946.0,75.72901153564453,-56.95181655883789,-1.9273244142532349,Left
3485.117919921875,23326,1,1755.0,1790.0,1755.0,1739.0,1755.0,1355.0,3849.0,1851.0,75.72901153564453,-56.95181655883789,-1.9273244142532349,Left
3477.656982421875,23327,1,1747.0,1886.0,1753.0,1811.0,1770.0,1634.0,4026.0,1683.0,75.72901153564453,-56.95181655883789,-1.9273244142532349,Left
3479.656982421875,23327,1,1763.0,1637.0,1755.0,1784.0,1719.0,1596.0,3831.0,1961.0,75.72901153564453,-56.95181655883789,-1.9273244142532349,Left
3481.656982421875,23327,1,1765.0,1582.0,1736.0,1735.0,1723.0,1517.0,3818.0,1747.0,75.72901153564453,-56.95181655883789,-1.9273244142532349,Left
3483.656982421875,23327,1,1753.0,1800.0,1764.0,1752.0,1753.0,1767.0,3848.0,1683.0,75.72901153564453,-56.95181655883789,-1.9273244142532349,Left
3485.656982421875,23327,1,1751.0,1821.0,1766.0,1797.0,1740.0,2141.0,3839.0,1788.0,75.72901153564453,-56.95181655883789,-1.9273244142532349,Left
3478.044189453125,23328,1,1752.0,1750.0,1797.0,1800.0,1773.0,2074.0,3847.0,1853.0,75.72901153564453,-56.95181655883789,-1.9273244142532349,Left
3480.044189453125,23328,1,1764.0,1735.0,1753.0,1791.0,1726.0,1851.0,3837.0,1773.0,75.5436782836914,-56.94961929321289,-1.952448844909668,Left
3482.044189453125,23328,1,1765.0,1762.0,1757.0,1789.0,1693.0,1830.0,3816.0,1765.0,75.5436782836914,-56.94961929321289,-1.952448844909668,Left
3484.044189453125,23328,1,1764.0,1789.0,1747.0,1781.0,1832.0,1599.0,3838.0,1804.0,75.5436782836914,-56.94961929321289,-1.952448844909668,Left
3486.044189453125,23328,1,1756.0,1812.0,1753.0,1767.0,1758.0,1455.0,3837.0,1639.0,75.5436782836914,-56.94961929321289,-1.952448844909668,Left
3481.49609375,23329,1,1734.0,1785.0,1700.0,1728.0,1779.0,1357.0,3821.0,1715.0,75.5436782836914,-56.94961929321289,-1.952448844909668,Left
3483.49609375,23329,1,1763.0,1718.0,1765.0,1739.0,1720.0,1663.0,3741.0,1784.0,75.5436782836914,-56.94961929321289,-1.952448844909668,Left
3485.49609375,23329,1,1751.0,1736.0,1779.0,1724.0,1787.0,1757.0,3468.0,1837.0,75.5436782836914,-56.94961929321289,-1.952448844909668,Left
3487.49609375,23329,1,1766.0,1693.0,1743.0,1741.0,1747.0,2035.0,3370.0,1818.0,75.5436782836914,-56.94961929321289,-1.952448844909668,Left
3489.49609375,23329,1,1765.0,1751.0,1755.0,1770.0,1733.0,2239.0,3273.0,1847.0,75.5436782836914,-56.94961929321289,-1.952448844909668,Left
3491.321044921875,23330,1,1765.0,1770.0,1753.0,1751.0,1757.0,2080.0,2937.0,1589.0,75.5436782836914,-56.94961929321289,-1.952448844909668,Left
3493.321044921875,23330,1,1766.0,1766.0,1747.0,1785.0,1726.0,1952.0,2845.0,1657.0,75.5436782836914,-56.94961929321289,-1.952448844909668,Left
3495.321044921875,23330,1,1757.0,1741.0,1752.0,1779.0,1716.0,1900.0,2743.0,1648.0,75.5436782836914,-56.94961929321289,-1.952448844909668,Left
3497.321044921875,23330,1,1756.0,1755.0,1743.0,1788.0,1751.0,1639.0,2643.0,1650.0,75.5436782836914,-56.94961929321289,-1.952448844909668,Left
3499.321044921875,23330,1,1755.0,1756.0,1759.0,1751.0,1750.0,1427.0,2389.0,1802.0,75.5436782836914,-56.94961929321289,-1.952448844909668,Left
3503.748291015625,23331,1,1764.0,1769.0,1751.0,1801.0,1789.0,1464.0,1523.0,1740.0,75.5436782836914,-56.94961929321289,-1.952448844909668,Left
3505.748291015625,23331,1,1750.0,1805.0,1749.0,1745.0,1784.0,1647.0,1285.0,1705.0,75.5436782836914,-56.94961929321289,-1.952448844909668,Left
3507.748291015625,23331,1,1759.0,1708.0,1778.0,1735.0,1685.0,1653.0,1141.0,1677.0,75.5436782836914,-56.94961929321289,-1.952448844909668,Left
3509.748291015625,23331,1,1762.0,1693.0,1773.0,1683.0,1734.0,1909.0,719.0,1785.0,75.5436782836914,-56.94961929321289,-1.952448844909668,Left
3511.748291015625,23331,1,1757.0,1767.0,1762.0,1765.0,1771.0,2107.0,188.0,1789.0,75.5436782836914,-56.94961929321289,-1.952448844909668,Left
3531.64697265625,23332,1,1749.0,1763.0,1756.0,1801.0,1753.0,1975.0,0.0,1843.0,75.5436782836914,-56.94961929321289,-1.952448844909668,Left
3533.64697265625,23332,1,1758.0,1718.0,1748.0,1768.0,1747.0,1904.0,0.0,1850.0,75.5436782836914,-56.94961929321289,-1.952448844909668,Left
3535.64697265625,23332,1,1757.0,1823.0,1756.0,1803.0,1755.0,1883.0,0.0,1722.0,75.5436782836914,-56.94961929321289,-1.952448844909668,Left
3537.64697265625,23332,1,1755.0,1769.0,1741.0,1787.0,1751.0,1685.0,0.0,1815.0,75.5436782836914,-56.94961929321289,-1.952448844909668,Left
3539.64697265625,23332,1,1765.0,1727.0,1743.0,1727.0,1741.0,1431.0,0.0,1865.0,75.5436782836914,-56.94961929321289,-1.952448844909668,Left
3532.09326171875,23333,1,1750.0,1669.0,1749.0,1723.0,1770.0,1635.0,0.0,1853.0,75.5436782836914,-56.94961929321289,-1.952448844909668,Left
3534.09326171875,23333,1,1759.0,1763.0,1771.0,1766.0,1742.0,1686.0,0.0,1709.0,75.5436782836914,-56.94961929321289,-1.952448844909668,Left
3536.09326171875,23333,1,1749.0,1759.0,1767.0,1740.0,1745.0,1757.0,0.0,1734.0,75.5436782836914,-56.94961929321289,-1.952448844909668,Left
3538.09326171875,23333,1,1763.0,1769.0,1764.0,1771.0,1771.0,1958.0,0.0,1679.0,75.5436782836914,-56.94961929321289,-1.952448844909668,Left
3540.09326171875,23333,1,1766.0,1773.0,1762.0,1748.0,1784.0,2187.0,0.0,1693.0,75.5436782836914,-56.94961929321289,-1.952448844909668,Left
3535.68310546875,23334,1,1752.0,1753.0,1736.0,1763.0,1757.0,2043.0,0.0,1707.0,75.5436782836914,-56.94961929321289,-1.952448844909668,Left
3537.68310546875,23334,1,1757.0,1745.0,1773.0,1775.0,1739.0,1871.0,0.0,1853.0,75.5436782836914,-56.94961929321289,-1.952448844909668,Left
3539.68310546875,23334,1,1764.0,1805.0,1757.0,1803.0,1751.0,1823.0,189.0,1805.0,75.5436782836914,-56.94961929321289,-1.952448844909668,Left
3541.68310546875,23334,1,1750.0,1747.0,1747.0,1787.0,1741.0,1436.0,489.0,1782.0,76.09318542480469,-56.92768478393555,-2.1274116039276123,Left
3543.68310546875,23334,1,1756.0,1756.0,1756.0,1773.0,1735.0,1271.0,710.0,1833.0,76.09318542480469,-56.92768478393555,-2.1274116039276123,Left
3543.389404296875,23335,1,1757.0,1752.0,1757.0,1714.0,1785.0,1395.0,873.0,1683.0,76.09318542480469,-56.92768478393555,-2.1274116039276123,Left
3545.389404296875,23335,1,1766.0,1727.0,1747.0,1703.0,1737.0,1518.0,1059.0,1917.0,76.09318542480469,-56.92768478393555,-2.1274116039276123,Left
3547.389404296875,23335,1,1765.0,1749.0,1766.0,1788.0,1755.0,1589.0,1175.0,1960.0,76.09318542480469,-56.92768478393555,-2.1274116039276123,Left
3549.389404296875,23335,1,1763.0,1775.0,1749.0,1743.0,1741.0,1911.0,1287.0,1831.0,76.09318542480469,-56.92768478393555,-2.1274116039276123,Left
3551.389404296875,23335,1,1755.0,1743.0,1763.0,1763.0,1750.0,2125.0,1371.0,1705.0,76.09318542480469,-56.92768478393555,-2.1274116039276123,Left
3553.089111328125,23336,1,1763.0,1736.0,1765.0,1790.0,1768.0,2014.0,1432.0,1533.0,76.09318542480469,-56.92768478393555,-2.1274116039276123,Left
3555.089111328125,23336,1,1757.0,1749.0,1768.0,1779.0,1735.0,1914.0,1498.0,1733.0,76.09318542480469,-56.92768478393555,-2.1274116039276123,Left
3557.089111328125,23336,1,1756.0,1743.0,1753.0,1782.0,1749.0,1832.0,1549.0,1747.0,76.09318542480469,-56.92768478393555,-2.1274116039276123,Left
3559.089111328125,23336,1,1751.0,1757.0,1749.0,1750.0,1757.0,1511.0,1581.0,1802.0,76.09318542480469,-56.92768478393555,-2.1274116039276123,Left
3561.089111328125,23336,1,1763.0,1813.0,1751.0,1764.0,1784.0,1260.0,1607.0,1721.0,76.09318542480469,-56.92768478393555,-2.1274116039276123,Left
3561.494140625,23337,1,1750.0,1755.0,1765.0,1717.0,1739.0,1396.0,1623.0,1736.0,76.09318542480469,-56.92768478393555,-2.1274116039276123,Left
3563.494140625,23337,1,1759.0,1785.0,1765.0,1778.0,1752.0,1429.0,1655.0,1671.0,76.09318542480469,-56.92768478393555,-2.1274116039276123,Left
3565.494140625,23337,1,1764.0,1620.0,1769.0,1749.0,1676.0,1491.0,1660.0,1771.0,76.09318542480469,-56.92768478393555,-2.1274116039276123,Left
3567.494140625,23337,1,1759.0,1715.0,1763.0,1718.0,1719.0,1811.0,2253.0,1701.0,76.09318542480469,-56.92768478393555,-2.1274116039276123,Left
3569.494140625,23337,1,1764.0,1752.0,1769.0,1756.0,1803.0,2095.0,2431.0,1561.0,76.09318542480469,-56.92768478393555,-2.1274116039276123,Left
3610.382080078125,23338,1,1751.0,1815.0,1739.0,1768.0,1749.0,1805.0,2175.0,1547.0,76.09318542480469,-56.92768478393555,-2.1274116039276123,Left
3612.382080078125,23338,1,1764.0,1839.0,1759.0,1807.0,1749.0,1786.0,1343.0,1647.0,76.09318542480469,-56.92768478393555,-2.1274116039276123,Left
3614.382080078125,23338,1,1749.0,1787.0,1751.0,1815.0,1811.0,1727.0,1721.0,1614.0,76.09318542480469,-56.92768478393555,-2.1274116039276123,Left
3616.382080078125,23338,1,1762.0,1735.0,1763.0,1757.0,1711.0,1588.0,2149.0,1659.0,76.09318542480469,-56.92768478393555,-2.1274116039276123,Left
3618.382080078125,23338,1,1763.0,1659.0,1786.0,1707.0,1751.0,1325.0,2303.0,1789.0,76.09318542480469,-56.92768478393555,-2.1274116039276123,Left
3611.614013671875,23339,1,1767.0,1709.0,1743.0,1745.0,1742.0,1541.0,2390.0,1869.0,76.09318542480469,-56.92768478393555,-2.1274116039276123,Left
3613.614013671875,23339,1,1752.0,1737.0,1757.0,1727.0,1753.0,1613.0,2171.0,1989.0,76.09318542480469,-56.92768478393555,-2.1274116039276123,Left
3615.614013671875,23339,1,1762.0,1799.0,1754.0,1749.0,1737.0,1620.0,1869.0,1890.0,76.09318542480469,-56.92768478393555,-2.1274116039276123,Left
3617.614013671875,23339,1,1751.0,1783.0,1783.0,1772.0,1748.0,1848.0,1501.0,1752.0,76.09318542480469,-56.92768478393555,-2.1274116039276123,Left
3619.614013671875,23339,1,1757.0,1754.0,1769.0,1735.0,1723.0,2109.0,1063.0,1863.0,76.09318542480469,-56.92768478393555,-2.1274116039276123,Left
3612.330078125,23340,1,1765.0,1769.0,1724.0,1768.0,1721.0,2094.0,1211.0,1645.0,76.09318542480469,-56.92768478393555,-2.1274116039276123,Left
3614.330078125,23340,1,1765.0,1769.0,1726.0,1789.0,1797.0,1958.0,1305.0,1703.0,76.09318542480469,-56.92768478393555,-2.1274116039276123,Left
3616.330078125,23340,1,1761.0,1817.0,1770.0,1769.0,1749.0,1891.0,1405.0,1594.0,76.09318542480469,-56.92768478393555,-2.1274116039276123,Left
3618.330078125,23340,1,1751.0,1734.0,1749.0,1709.0,1743.0,1575.0,1465.0,1703.0,76.09318542480469,-56.92768478393555,-2.1274116039276123,Left
3620.330078125,23340,1,1757.0,1788.0,1755.0,1734.0,1763.0,1363.0,1544.0,1801.0,76.09318542480469,-56.92768478393555,-2.1274116039276123,Left
3612.76220703125,23341,1,1756.0,1721.0,1756.0,1695.0,1722.0,1628.0,1595.0,1640.0,76.09318542480469,-56.92768478393555,-2.1274116039276123,Left
3614.76220703125,23341,1,1763.0,1620.0,1765.0,1753.0,1721.0,1715.0,1613.0,1657.0,76.00079345703125,-56.984100341796875,-2.1506175994873047,Left
3616.76220703125,23341,1,1763.0,1811.0,1765.0,1783.0,1758.0,1651.0,1628.0,1703.0,76.00079345703125,-56.984100341796875,-2.1506175994873047,Left
3618.76220703125,23341,1,1749.0,1823.0,1749.0,1774.0,1783.0,2007.0,1673.0,1787.0,76.00079345703125,-56.984100341796875,-2.1506175994873047,Left
3620.76220703125,23341,1,1763.0,1779.0,1749.0,1799.0,1737.0,2221.0,1687.0,1870.0,76.00079345703125,-56.984100341796875,-2.1506175994873047,Left
3613.394287109375,23342,1,1759.0,1718.0,1775.0,1788.0,1737.0,2023.0,1695.0,1743.0,76.00079345703125,-56.984100341796875,-2.1506175994873047,Left
3615.394287109375,23342,1,1751.0,1748.0,1758.0,1757.0,1753.0,1944.0,1717.0,1673.0,76.00079345703125,-56.984100341796875,-2.1506175994873047,Left
3617.394287109375,23342,1,1765.0,1802.0,1754.0,1783.0,1752.0,2003.0,1709.0,1816.0,76.00079345703125,-56.984100341796875,-2.1506175994873047,Left
3619.394287109375,23342,1,1751.0,1747.0,1735.0,1774.0,1747.0,1540.0,1723.0,1779.0,76.00079345703125,-56.984100341796875,-2.1506175994873047,Left
3621.394287109375,23342,1,1761.0,1672.0,1779.0,1717.0,1741.0,1287.0,1733.0,1717.0,76.00079345703125,-56.984100341796875,-2.1506175994873047,Left
3628.76708984375,23343,1,1765.0,1765.0,1766.0,1775.0,1755.0,1577.0,1719.0,1511.0,76.00079345703125,-56.984100341796875,-2.1506175994873047,Left
3630.76708984375,23343,1,1763.0,1807.0,1754.0,1763.0,1765.0,1531.0,1736.0,1689.0,76.00079345703125,-56.984100341796875,-2.1506175994873047,Left
3632.76708984375,23343,1,1753.0,1763.0,1757.0,1752.0,1736.0,1630.0,1736.0,1701.0,76.00079345703125,-56.984100341796875,-2.1506175994873047,Left
3634.76708984375,23343,1,1750.0,1740.0,1757.0,1751.0,1687.0,1935.0,1751.0,1767.0,76.00079345703125,-56.984100341796875,-2.1506175994873047,Left
3636.76708984375,23343,1,1752.0,1747.0,1753.0,1767.0,1756.0,2167.0,1736.0,1775.0,76.00079345703125,-56.984100341796875,-2.1506175994873047,Left
3638.1650390625,23344,1,1765.0,1693.0,1759.0,1789.0,1736.0,1927.0,1752.0,1711.0,76.00079345703125,-56.984100341796875,-2.1506175994873047,Left
3640.1650390625,23344,1,1757.0,1854.0,1748.0,1805.0,1764.0,1833.0,1749.0,1737.0,76.00079345703125,-56.984100341796875,-2.1506175994873047,Left
3642.1650390625,23344,1,1762.0,1823.0,1769.0,1723.0,1763.0,1773.0,1751.0,1677.0,76.00079345703125,-56.984100341796875,-2.1506175994873047,Left
3644.1650390625,23344,1,1741.0,1644.0,1764.0,1629.0,1699.0,1499.0,1758.0,1734.0,76.00079345703125,-56.984100341796875,-2.1506175994873047,Left
3646.1650390625,23344,1,1757.0,1715.0,1767.0,1779.0,1755.0,1323.0,1763.0,1759.0,76.00079345703125,-56.984100341796875,-2.1506175994873047,Left
3642.404052734375,23345,1,1758.0,1805.0,1753.0,1762.0,1755.0,1453.0,1741.0,1776.0,76.00079345703125,-56.984100341796875,-2.1506175994873047,Left
3644.404052734375,23345,1,1759.0,1785.0,1740.0,1769.0,1769.0,1720.0,1720.0,1612.0,76.00079345703125,-56.984100341796875,-2.1506175994873047,Left
3646.404052734375,23345,1,1763.0,1783.0,1753.0,1727.0,1763.0,1623.0,1765.0,1891.0,76.00079345703125,-56.984100341796875,-2.1506175994873047,Left
3648.404052734375,23345,1,1763.0,1740.0,1770.0,1751.0,1703.0,1926.0,1755.0,1914.0,76.00079345703125,-56.984100341796875,-2.1506175994873047,Left
3650.404052734375,23345,1,1765.0,1759.0,1757.0,1746.0,1756.0,2105.0,1763.0,1869.0,76.00079345703125,-56.984100341796875,-2.1506175994873047,Left
3651.960205078125,23346,1,1751.0,1735.0,1751.0,1758.0,1709.0,2030.0,1775.0,1772.0,76.00079345703125,-56.984100341796875,-2.1506175994873047,Left
3653.960205078125,23346,1,1764.0,1759.0,1747.0,1780.0,1839.0,1907.0,1757.0,1621.0,76.00079345703125,-56.984100341796875,-2.1506175994873047,Left
3655.960205078125,23346,1,1749.0,1741.0,1769.0,1779.0,1733.0,1753.0,1764.0,1683.0,76.00079345703125,-56.984100341796875,-2.1506175994873047,Left
3657.960205078125,23346,1,1751.0,1804.0,1764.0,1811.0,1755.0,1429.0,1765.0,1823.0,76.00079345703125,-56.984100341796875,-2.1506175994873047,Left
3659.960205078125,23346,1,1751.0,1755.0,1755.0,1717.0,1690.0,1229.0,1747.0,1832.0,76.00079345703125,-56.984100341796875,-2.1506175994873047,Left
3663.6552734375,23347,1,1764.0,1686.0,1737.0,1740.0,1769.0,1431.0,1765.0,1821.0,76.00079345703125,-56.984100341796875,-2.1506175994873047,Left
3665.6552734375,23347,1,1750.0,1769.0,1766.0,1774.0,1751.0,1587.0,1763.0,1820.0,76.00079345703125,-56.984100341796875,-2.1506175994873047,Left
3667.6552734375,23347,1,1759.0,1727.0,1733.0,1756.0,1719.0,1553.0,1748.0,1684.0,76.00079345703125,-56.984100341796875,-2.1506175994873047,Left
3669.6552734375,23347,1,1757.0,1767.0,1738.0,1749.0,1705.0,1788.0,1763.0,1591.0,76.00079345703125,-56.984100341796875,-2.1506175994873047,Left
3671.6552734375,23347,1,1761.0,1780.0,1797.0,1751.0,1798.0,2005.0,1766.0,1655.0,76.30774688720703,-56.98806381225586,-2.275987148284912,Left
3673.47802734375,23348,1,1762.0,1684.0,1797.0,1719.0,1725.0,1879.0,1758.0,1451.0,76.30774688720703,-56.98806381225586,-2.275987148284912,Left
3675.47802734375,23348,1,1763.0,1811.0,1769.0,1756.0,1771.0,1917.0,1764.0,1803.0,76.30774688720703,-56.98806381225586,-2.275987148284912,Left
3677.47802734375,23348,1,1765.0,1749.0,1746.0,1799.0,1748.0,1903.0,1767.0,1878.0,76.30774688720703,-56.98806381225586,-2.275987148284912,Left
3679.47802734375,23348,1,1765.0,1802.0,1725.0,1800.0,1773.0,1705.0,1763.0,1835.0,76.30774688720703,-56.98806381225586,-2.275987148284912,Left
3681.47802734375,23348,1,1751.0,1767.0,1755.0,1771.0,1766.0,1455.0,1765.0,1879.0,76.30774688720703,-56.98806381225586,-2.275987148284912,Left
3687.230224609375,23349,1,1764.0,1803.0,1767.0,1775.0,1763.0,1515.0,1738.0,1561.0,76.30774688720703,-56.98806381225586,-2.275987148284912,Left
