Timestamp_ms,Packet_Number,Trial_ID,Ch1,Ch2,Ch3,Ch4,Ch5,Ch6,Ch7,Ch8,Ch9,Ch10,Ch11,Label
3300.376953125,14784,1,1749.0,1749.0,2015.0,1939.0,1749.0,1743.0,1755.0,1738.0,-154.79562377929688,-5.199920177459717,-45.54273223876953,Left
3302.376953125,14784,1,1755.0,1764.0,1947.0,1797.0,1761.0,1753.0,1755.0,1723.0,-154.79562377929688,-5.199920177459717,-45.54273223876953,Left
3304.376953125,14784,1,1757.0,1767.0,2025.0,1725.0,1755.0,1759.0,1759.0,1733.0,-154.79562377929688,-5.199920177459717,-45.54273223876953,Left
3306.376953125,14784,1,1765.0,1769.0,1700.0,1641.0,1757.0,1759.0,1759.0,1737.0,-154.79562377929688,-5.199920177459717,-45.54273223876953,Left
3308.376953125,14784,1,1763.0,1769.0,1756.0,1711.0,1753.0,1759.0,1757.0,1733.0,-154.79562377929688,-5.199920177459717,-45.54273223876953,Left
3300.376953125,14785,1,1769.0,1775.0,1692.0,1615.0,1763.0,1769.0,1757.0,1743.0,-154.79562377929688,-5.199920177459717,-45.54273223876953,Left
3302.376953125,14785,1,1757.0,1758.0,1813.0,1660.0,1747.0,1751.0,1759.0,1775.0,-154.79562377929688,-5.199920177459717,-45.54273223876953,Left
3304.376953125,14785,1,1749.0,1751.0,1784.0,1701.0,1735.0,1739.0,1757.0,1773.0,-154.79562377929688,-5.199920177459717,-45.54273223876953,Left
3306.376953125,14785,1,1727.0,1733.0,1784.0,1883.0,1719.0,1735.0,1757.0,1777.0,-154.79562377929688,-5.199920177459717,-45.54273223876953,Left
3308.376953125,14785,1,1745.0,1741.0,1683.0,1980.0,1739.0,1741.0,1757.0,1757.0,-154.79562377929688,-5.199920177459717,-45.54273223876953,Left
3330.6708984375,14786,1,1749.0,1749.0,1829.0,1976.0,1746.0,1748.0,1759.0,1739.0,-154.79562377929688,-5.199920177459717,-45.54273223876953,Left
3332.6708984375,14786,1,1754.0,1766.0,1829.0,1867.0,1755.0,1755.0,1762.0,1735.0,-154.79562377929688,-5.199920177459717,-45.54273223876953,Left
3334.6708984375,14786,1,1755.0,1765.0,1819.0,1847.0,1763.0,1757.0,1759.0,1741.0,-154.79562377929688,-5.199920177459717,-45.54273223876953,Left
3336.6708984375,14786,1,1771.0,1774.0,1745.0,1756.0,1759.0,1757.0,1757.0,1736.0,-154.79562377929688,-5.199920177459717,-45.54273223876953,Left
3338.6708984375,14786,1,1767.0,1771.0,1693.0,1790.0,1757.0,1757.0,1758.0,1741.0,-154.79562377929688,-5.199920177459717,-45.54273223876953,Left
3330.6708984375,14787,1,1779.0,1783.0,1527.0,1624.0,1765.0,1767.0,1759.0,1738.0,-154.79562377929688,-5.199920177459717,-45.54273223876953,Left
3332.6708984375,14787,1,1767.0,1765.0,1515.0,1627.0,1748.0,1742.0,1757.0,1767.0,-154.79562377929688,-5.199920177459717,-45.54273223876953,Left
3334.6708984375,14787,1,1741.0,1747.0,1614.0,1689.0,1733.0,1747.0,1763.0,1783.0,-154.79562377929688,-5.199920177459717,-45.54273223876953,Left
3336.6708984375,14787,1,1735.0,1734.0,1979.0,1875.0,1723.0,1725.0,1759.0,1783.0,-154.79562377929688,-5.199920177459717,-45.54273223876953,Left
3338.6708984375,14787,1,1737.0,1741.0,1903.0,1992.0,1739.0,1735.0,1756.0,1757.0,-154.79562377929688,-5.199920177459717,-45.54273223876953,Left
3330.6708984375,14788,1,1739.0,1748.0,1909.0,1997.0,1749.0,1747.0,1757.0,1735.0,-154.79562377929688,-5.199920177459717,-45.54273223876953,Left
3332.6708984375,14788,1,1751.0,1769.0,1884.0,1957.0,1757.0,1753.0,1759.0,1724.0,-154.79562377929688,-5.199920177459717,-45.54273223876953,Left
3334.6708984375,14788,1,1759.0,1767.0,1677.0,1968.0,1755.0,1754.0,1757.0,1709.0,-154.79562377929688,-5.199920177459717,-45.54273223876953,Left
3336.6708984375,14788,1,1767.0,1772.0,1743.0,1845.0,1755.0,1763.0,1759.0,1704.0,-154.79562377929688,-5.199920177459717,-45.54273223876953,Left
3338.6708984375,14788,1,1762.0,1770.0,1819.0,1790.0,1757.0,1755.0,1757.0,1720.0,-154.79562377929688,-5.199920177459717,-45.54273223876953,Left
3350.54443359375,14789,1,1771.0,1781.0,1613.0,1595.0,1771.0,1767.0,1757.0,1711.0,-154.79562377929688,-5.199920177459717,-45.54273223876953,Left
3352.54443359375,14789,1,1763.0,1757.0,1571.0,1491.0,1746.0,1753.0,1763.0,1762.0,-154.79562377929688,-5.199920177459717,-45.54273223876953,Left
3354.54443359375,14789,1,1752.0,1747.0,1828.0,1679.0,1727.0,1742.0,1759.0,1774.0,-154.79562377929688,-5.199920177459717,-45.54273223876953,Left
3356.54443359375,14789,1,1736.0,1733.0,1962.0,1886.0,1719.0,1725.0,1764.0,1791.0,-154.79562377929688,-5.199920177459717,-45.54273223876953,Left
3358.54443359375,14789,1,1747.0,1741.0,1903.0,1932.0,1735.0,1735.0,1757.0,1764.0,-154.79888916015625,-5.210405349731445,-45.53828048706055,Left
3365.3310546875,14790,1,1742.0,1743.0,1966.0,1879.0,1741.0,1743.0,1757.0,1749.0,-154.79888916015625,-5.210405349731445,-45.53828048706055,Left
3367.3310546875,14790,1,1759.0,1758.0,1850.0,1755.0,1755.0,1749.0,1757.0,1727.0,-154.79888916015625,-5.210405349731445,-45.53828048706055,Left
3369.3310546875,14790,1,1763.0,1763.0,1753.0,1711.0,1753.0,1757.0,1763.0,1735.0,-154.79888916015625,-5.210405349731445,-45.53828048706055,Left
3371.3310546875,14790,1,1771.0,1772.0,1483.0,1637.0,1767.0,1761.0,1757.0,1737.0,-154.79888916015625,-5.210405349731445,-45.53828048706055,Left
3373.3310546875,14790,1,1763.0,1767.0,1503.0,1526.0,1752.0,1755.0,1762.0,1727.0,-154.79888916015625,-5.210405349731445,-45.53828048706055,Left
3378.809814453125,14791,1,1773.0,1774.0,1421.0,1355.0,1767.0,1764.0,1759.0,1725.0,-154.79888916015625,-5.210405349731445,-45.53828048706055,Left
3380.809814453125,14791,1,1763.0,1766.0,1357.0,1288.0,1751.0,1753.0,1763.0,1763.0,-154.79888916015625,-5.210405349731445,-45.53828048706055,Left
3382.809814453125,14791,1,1757.0,1752.0,1466.0,1484.0,1741.0,1741.0,1763.0,1771.0,-154.79888916015625,-5.210405349731445,-45.53828048706055,Left
3384.809814453125,14791,1,1741.0,1736.0,1582.0,1715.0,1717.0,1721.0,1757.0,1786.0,-154.79888916015625,-5.210405349731445,-45.53828048706055,Left
3386.809814453125,14791,1,1738.0,1737.0,1617.0,1919.0,1736.0,1735.0,1756.0,1747.0,-154.79888916015625,-5.210405349731445,-45.53828048706055,Left
3378.809814453125,14792,1,1751.0,1753.0,1751.0,2057.0,1742.0,1738.0,1757.0,1723.0,-154.79888916015625,-5.210405349731445,-45.53828048706055,Left
3380.809814453125,14792,1,1751.0,1767.0,1584.0,2088.0,1755.0,1755.0,1757.0,1710.0,-154.79888916015625,-5.210405349731445,-45.53828048706055,Left
3382.809814453125,14792,1,1756.0,1766.0,1643.0,1963.0,1759.0,1753.0,1758.0,1725.0,-154.79888916015625,-5.210405349731445,-45.53828048706055,Left
3384.809814453125,14792,1,1769.0,1772.0,1591.0,1843.0,1764.0,1761.0,1759.0,1721.0,-154.79888916015625,-5.210405349731445,-45.53828048706055,Left
3386.809814453125,14792,1,1767.0,1769.0,1612.0,1807.0,1761.0,1759.0,1759.0,1739.0,-154.79888916015625,-5.210405349731445,-45.53828048706055,Left
3378.809814453125,14793,1,1773.0,1781.0,1559.0,1671.0,1769.0,1758.0,1759.0,1736.0,-154.79888916015625,-5.210405349731445,-45.53828048706055,Left
3380.809814453125,14793,1,1765.0,1764.0,1431.0,1579.0,1751.0,1755.0,1757.0,1763.0,-154.79888916015625,-5.210405349731445,-45.53828048706055,Left
3382.809814453125,14793,1,1757.0,1752.0,1477.0,1594.0,1746.0,1748.0,1757.0,1775.0,-154.79888916015625,-5.210405349731445,-45.53828048706055,Left
3384.809814453125,14793,1,1739.0,1736.0,1636.0,1675.0,1720.0,1735.0,1757.0,1783.0,-154.79888916015625,-5.210405349731445,-45.53828048706055,Left
3386.809814453125,14793,1,1737.0,1745.0,1863.0,1759.0,1735.0,1737.0,1757.0,1754.0,-154.79888916015625,-5.210405349731445,-45.53828048706055,Left
3396.405029296875,14794,1,1745.0,1751.0,2053.0,1874.0,1739.0,1747.0,1754.0,1749.0,-154.79888916015625,-5.210405349731445,-45.53828048706055,Left
3398.405029296875,14794,1,1757.0,1757.0,1940.0,1875.0,1753.0,1753.0,1757.0,1718.0,-154.79888916015625,-5.210405349731445,-45.53828048706055,Left
3400.405029296875,14794,1,1753.0,1767.0,1957.0,1773.0,1757.0,1755.0,1757.0,1727.0,-154.79888916015625,-5.210405349731445,-45.53828048706055,Left
3402.405029296875,14794,1,1763.0,1773.0,1885.0,1720.0,1757.0,1763.0,1759.0,1717.0,-154.79888916015625,-5.210405349731445,-45.53828048706055,Left
3404.405029296875,14794,1,1764.0,1772.0,1771.0,1637.0,1756.0,1757.0,1759.0,1738.0,-154.79888916015625,-5.210405349731445,-45.53828048706055,Left
3411.12744140625,14795,1,1766.0,1780.0,1583.0,1579.0,1770.0,1767.0,1757.0,1717.0,-154.79888916015625,-5.210405349731445,-45.53828048706055,Left
3413.12744140625,14795,1,1766.0,1768.0,1687.0,1499.0,1749.0,1754.0,1757.0,1751.0,-154.79888916015625,-5.210405349731445,-45.53828048706055,Left
3415.12744140625,14795,1,1769.0,1754.0,1653.0,1489.0,1741.0,1741.0,1758.0,1759.0,-154.79888916015625,-5.210405349731445,-45.53828048706055,Left
3417.12744140625,14795,1,1739.0,1736.0,1547.0,1685.0,1724.0,1725.0,1757.0,1781.0,-154.79888916015625,-5.210405349731445,-45.53828048706055,Left
3419.12744140625,14795,1,1736.0,1739.0,1651.0,1915.0,1734.0,1727.0,1759.0,1769.0,-154.79888916015625,-5.210405349731445,-45.53828048706055,Left
3479.587158203125,14796,1,1749.0,1749.0,1911.0,1960.0,1743.0,1741.0,1758.0,1739.0,-154.79888916015625,-5.210405349731445,-45.53828048706055,Left
3481.587158203125,14796,1,1758.0,1763.0,1753.0,1948.0,1755.0,1751.0,1755.0,1719.0,-154.80430603027344,-5.197885036468506,-45.53520965576172,Left
3483.587158203125,14796,1,1759.0,1759.0,1599.0,1863.0,1756.0,1747.0,1759.0,1721.0,-154.80430603027344,-5.197885036468506,-45.53520965576172,Left
3485.587158203125,14796,1,1766.0,1771.0,1532.0,1766.0,1759.0,1759.0,1759.0,1721.0,-154.80430603027344,-5.197885036468506,-45.53520965576172,Left
3487.587158203125,14796,1,1768.0,1771.0,1707.0,1715.0,1763.0,1759.0,1759.0,1735.0,-154.80430603027344,-5.197885036468506,-45.53520965576172,Left
3479.587158203125,14797,1,1775.0,1779.0,1750.0,1573.0,1773.0,1767.0,1757.0,1717.0,-154.80430603027344,-5.197885036468506,-45.53520965576172,Left
3481.587158203125,14797,1,1768.0,1765.0,1747.0,1450.0,1750.0,1749.0,1757.0,1763.0,-154.80430603027344,-5.197885036468506,-45.53520965576172,Left
3483.587158203125,14797,1,1753.0,1755.0,1692.0,1490.0,1745.0,1741.0,1758.0,1773.0,-154.80430603027344,-5.197885036468506,-45.53520965576172,Left
3485.587158203125,14797,1,1737.0,1737.0,1804.0,1673.0,1717.0,1728.0,1763.0,1801.0,-154.80430603027344,-5.197885036468506,-45.53520965576172,Left
3487.587158203125,14797,1,1737.0,1739.0,2035.0,1789.0,1735.0,1733.0,1759.0,1768.0,-154.80430603027344,-5.197885036468506,-45.53520965576172,Left
3479.587158203125,14798,1,1749.0,1752.0,2059.0,1877.0,1737.0,1743.0,1757.0,1753.0,-154.80430603027344,-5.197885036468506,-45.53520965576172,Left
3481.587158203125,14798,1,1755.0,1755.0,1989.0,1823.0,1752.0,1753.0,1761.0,1721.0,-154.80430603027344,-5.197885036468506,-45.53520965576172,Left
3483.587158203125,14798,1,1759.0,1769.0,1982.0,1838.0,1758.0,1757.0,1750.0,1711.0,-154.80430603027344,-5.197885036468506,-45.53520965576172,Left
3485.587158203125,14798,1,1759.0,1771.0,1896.0,1796.0,1765.0,1765.0,1763.0,1716.0,-154.80430603027344,-5.197885036468506,-45.53520965576172,Left
3487.587158203125,14798,1,1756.0,1768.0,1673.0,1757.0,1757.0,1751.0,1763.0,1717.0,-154.80430603027344,-5.197885036468506,-45.53520965576172,Left
3479.587158203125,14799,1,1767.0,1780.0,1854.0,1715.0,1766.0,1767.0,1753.0,1719.0,-154.80430603027344,-5.197885036468506,-45.53520965576172,Left
3481.587158203125,14799,1,1771.0,1774.0,1803.0,1527.0,1748.0,1755.0,1752.0,1748.0,-154.80430603027344,-5.197885036468506,-45.53520965576172,Left
3483.587158203125,14799,1,1758.0,1757.0,1762.0,1580.0,1743.0,1747.0,1759.0,1775.0,-154.80430603027344,-5.197885036468506,-45.53520965576172,Left
3485.587158203125,14799,1,1752.0,1735.0,1884.0,1714.0,1719.0,1727.0,1757.0,1791.0,-154.80430603027344,-5.197885036468506,-45.53520965576172,Left
3487.587158203125,14799,1,1736.0,1736.0,2075.0,1993.0,1725.0,1736.0,1763.0,1767.0,-154.80430603027344,-5.197885036468506,-45.53520965576172,Left
3485.437255859375,14800,1,1747.0,1749.0,1784.0,2078.0,1741.0,1736.0,1759.0,1735.0,-154.80430603027344,-5.197885036468506,-45.53520965576172,Left
3487.437255859375,14800,1,1750.0,1757.0,1919.0,2165.0,1762.0,1749.0,1757.0,1725.0,-154.80430603027344,-5.197885036468506,-45.53520965576172,Left
3489.437255859375,14800,1,1759.0,1765.0,1629.0,2055.0,1755.0,1749.0,1757.0,1723.0,-154.80430603027344,-5.197885036468506,-45.53520965576172,Left
3491.437255859375,14800,1,1765.0,1771.0,1582.0,1903.0,1765.0,1758.0,1763.0,1708.0,-154.80430603027344,-5.197885036468506,-45.53520965576172,Left
3493.437255859375,14800,1,1763.0,1767.0,1512.0,1843.0,1755.0,1758.0,1755.0,1733.0,-154.80430603027344,-5.197885036468506,-45.53520965576172,Left
3485.437255859375,14801,1,1767.0,1769.0,1571.0,1723.0,1767.0,1767.0,1755.0,1735.0,-154.80430603027344,-5.197885036468506,-45.53520965576172,Left
3487.437255859375,14801,1,1769.0,1778.0,1577.0,1589.0,1765.0,1763.0,1757.0,1752.0,-154.80430603027344,-5.197885036468506,-45.53520965576172,Left
3489.437255859375,14801,1,1755.0,1753.0,1595.0,1501.0,1743.0,1747.0,1757.0,1766.0,-154.80430603027344,-5.197885036468506,-45.53520965576172,Left
3491.437255859375,14801,1,1739.0,1738.0,1779.0,1563.0,1721.0,1735.0,1756.0,1781.0,-154.80430603027344,-5.197885036468506,-45.53520965576172,Left
3493.437255859375,14801,1,1737.0,1737.0,2137.0,1853.0,1727.0,1727.0,1759.0,1775.0,-154.80430603027344,-5.197885036468506,-45.53520965576172,Left
3485.437255859375,14802,1,1740.0,1752.0,2101.0,1951.0,1741.0,1737.0,1757.0,1739.0,-154.80430603027344,-5.197885036468506,-45.53520965576172,Left
3487.437255859375,14802,1,1753.0,1756.0,2120.0,1893.0,1754.0,1750.0,1759.0,1727.0,-154.80430603027344,-5.197885036468506,-45.53520965576172,Left
3489.437255859375,14802,1,1763.0,1765.0,1997.0,1828.0,1757.0,1755.0,1759.0,1727.0,-154.80430603027344,-5.197885036468506,-45.53520965576172,Left
3491.437255859375,14802,1,1767.0,1769.0,1861.0,1879.0,1773.0,1755.0,1754.0,1724.0,-154.80430603027344,-5.197885036468506,-45.53520965576172,Left
3493.437255859375,14802,1,1769.0,1772.0,1661.0,1791.0,1758.0,1757.0,1757.0,1727.0,-154.82168579101562,-5.214083671569824,-45.52865982055664,Left
3491.27685546875,14803,1,1757.0,1769.0,1388.0,1704.0,1767.0,1763.0,1757.0,1727.0,-154.82168579101562,-5.214083671569824,-45.52865982055664,Left
3493.27685546875,14803,1,1771.0,1775.0,1407.0,1509.0,1763.0,1758.0,1761.0,1741.0,-154.82168579101562,-5.214083671569824,-45.52865982055664,Left
3495.27685546875,14803,1,1753.0,1756.0,1635.0,1515.0,1747.0,1743.0,1757.0,1783.0,-154.82168579101562,-5.214083671569824,-45.52865982055664,Left
3497.27685546875,14803,1,1741.0,1738.0,1758.0,1604.0,1719.0,1725.0,1757.0,1797.0,-154.82168579101562,-5.214083671569824,-45.52865982055664,Left
3499.27685546875,14803,1,1743.0,1733.0,1943.0,1775.0,1734.0,1727.0,1758.0,1771.0,-154.82168579101562,-5.214083671569824,-45.52865982055664,Left
3507.30322265625,14804,1,1751.0,1693.0,1775.0,1907.0,1740.0,1738.0,1759.0,1756.0,-154.82168579101562,-5.214083671569824,-45.52865982055664,Left
3509.30322265625,14804,1,1755.0,1753.0,1593.0,1952.0,1752.0,1748.0,1757.0,1739.0,-154.82168579101562,-5.214083671569824,-45.52865982055664,Left
3511.30322265625,14804,1,1768.0,1763.0,1737.0,1897.0,1756.0,1749.0,1759.0,1726.0,-154.82168579101562,-5.214083671569824,-45.52865982055664,Left
3513.30322265625,14804,1,1763.0,1769.0,1553.0,1861.0,1762.0,1757.0,1757.0,1725.0,-154.82168579101562,-5.214083671569824,-45.52865982055664,Left
3515.30322265625,14804,1,1763.0,1773.0,1820.0,1675.0,1763.0,1755.0,1757.0,1736.0,-154.82168579101562,-5.214083671569824,-45.52865982055664,Left
3507.30322265625,14805,1,1763.0,1765.0,1803.0,1561.0,1767.0,1767.0,1766.0,1739.0,-154.82168579101562,-5.214083671569824,-45.52865982055664,Left
3509.30322265625,14805,1,1779.0,1779.0,1709.0,1497.0,1765.0,1758.0,1763.0,1747.0,-154.82168579101562,-5.214083671569824,-45.52865982055664,Left
3511.30322265625,14805,1,1757.0,1755.0,1855.0,1621.0,1742.0,1749.0,1762.0,1783.0,-154.82168579101562,-5.214083671569824,-45.52865982055664,Left
3513.30322265625,14805,1,1741.0,1743.0,1908.0,1811.0,1721.0,1721.0,1761.0,1783.0,-154.82168579101562,-5.214083671569824,-45.52865982055664,Left
3515.30322265625,14805,1,1737.0,1735.0,1867.0,1949.0,1722.0,1717.0,1759.0,1783.0,-154.82168579101562,-5.214083671569824,-45.52865982055664,Left
3523.33203125,14806,1,1738.0,1741.0,1950.0,1925.0,1741.0,1733.0,1759.0,1743.0,-154.82168579101562,-5.214083671569824,-45.52865982055664,Left
3525.33203125,14806,1,1757.0,1751.0,1925.0,1967.0,1751.0,1749.0,1757.0,1738.0,-154.82168579101562,-5.214083671569824,-45.52865982055664,Left
3527.33203125,14806,1,1765.0,1769.0,1943.0,1895.0,1763.0,1755.0,1762.0,1717.0,-154.82168579101562,-5.214083671569824,-45.52865982055664,Left
3529.33203125,14806,1,1769.0,1769.0,1821.0,1864.0,1764.0,1763.0,1762.0,1719.0,-154.82168579101562,-5.214083671569824,-45.52865982055664,Left
3531.33203125,14806,1,1773.0,1771.0,1741.0,1737.0,1757.0,1763.0,1763.0,1721.0,-154.82168579101562,-5.214083671569824,-45.52865982055664,Left
3523.33203125,14807,1,1767.0,1756.0,1661.0,1694.0,1762.0,1763.0,1758.0,1735.0,-154.82168579101562,-5.214083671569824,-45.52865982055664,Left
3525.33203125,14807,1,1779.0,1779.0,1701.0,1429.0,1765.0,1767.0,1757.0,1738.0,-154.82168579101562,-5.214083671569824,-45.52865982055664,Left
3527.33203125,14807,1,1761.0,1757.0,1754.0,1551.0,1737.0,1751.0,1759.0,1773.0,-154.82168579101562,-5.214083671569824,-45.52865982055664,Left
3529.33203125,14807,1,1754.0,1749.0,1913.0,1695.0,1721.0,1736.0,1759.0,1787.0,-154.82168579101562,-5.214083671569824,-45.52865982055664,Left
3531.33203125,14807,1,1732.0,1737.0,1879.0,1892.0,1723.0,1734.0,1758.0,1782.0,-154.82168579101562,-5.214083671569824,-45.52865982055664,Left
3539.3564453125,14808,1,1741.0,1740.0,1787.0,2027.0,1739.0,1741.0,1757.0,1752.0,-154.82168579101562,-5.214083671569824,-45.52865982055664,Left
3541.3564453125,14808,1,1745.0,1747.0,1771.0,2071.0,1748.0,1752.0,1755.0,1740.0,-154.82168579101562,-5.214083671569824,-45.52865982055664,Left
3543.3564453125,14808,1,1755.0,1765.0,1634.0,1919.0,1755.0,1753.0,1758.0,1723.0,-154.82168579101562,-5.214083671569824,-45.52865982055664,Left
3545.3564453125,14808,1,1767.0,1767.0,1703.0,1929.0,1759.0,1757.0,1758.0,1718.0,-154.82168579101562,-5.214083671569824,-45.52865982055664,Left
3547.3564453125,14808,1,1773.0,1778.0,1590.0,1738.0,1763.0,1763.0,1759.0,1724.0,-154.82168579101562,-5.214083671569824,-45.52865982055664,Left
3539.3564453125,14809,1,1761.0,1769.0,1783.0,1772.0,1759.0,1763.0,1757.0,1736.0,-154.82168579101562,-5.214083671569824,-45.52865982055664,Left
3541.3564453125,14809,1,1779.0,1781.0,1656.0,1635.0,1769.0,1767.0,1757.0,1741.0,-154.82647705078125,-5.224874019622803,-45.52149963378906,Left
3543.3564453125,14809,1,1768.0,1757.0,1657.0,1593.0,1749.0,1751.0,1761.0,1758.0,-154.82647705078125,-5.224874019622803,-45.52149963378906,Left
3545.3564453125,14809,1,1747.0,1745.0,1628.0,1689.0,1741.0,1737.0,1759.0,1783.0,-154.82647705078125,-5.224874019622803,-45.52149963378906,Left
3547.3564453125,14809,1,1739.0,1735.0,1735.0,1881.0,1734.0,1723.0,1758.0,1818.0,-154.82647705078125,-5.224874019622803,-45.52149963378906,Left
3572.946044921875,14810,1,1735.0,1734.0,1878.0,1887.0,1723.0,1735.0,1761.0,1757.0,-154.82647705078125,-5.224874019622803,-45.52149963378906,Left
3574.946044921875,14810,1,1703.0,1750.0,1763.0,1821.0,1747.0,1743.0,1756.0,1718.0,-154.82647705078125,-5.224874019622803,-45.52149963378906,Left
3576.946044921875,14810,1,1756.0,1771.0,1890.0,1770.0,1757.0,1753.0,1759.0,1718.0,-154.82647705078125,-5.224874019622803,-45.52149963378906,Left
3578.946044921875,14810,1,1771.0,1767.0,1929.0,1708.0,1757.0,1755.0,1759.0,1743.0,-154.82647705078125,-5.224874019622803,-45.52149963378906,Left
3580.946044921875,14810,1,1809.0,1773.0,1882.0,1652.0,1768.0,1763.0,1757.0,1716.0,-154.82647705078125,-5.224874019622803,-45.52149963378906,Left
3572.946044921875,14811,1,1824.0,1761.0,1675.0,1639.0,1765.0,1755.0,1745.0,1749.0,-154.82647705078125,-5.224874019622803,-45.52149963378906,Left
3574.946044921875,14811,1,1807.0,1779.0,1516.0,1451.0,1769.0,1767.0,1757.0,1738.0,-154.82647705078125,-5.224874019622803,-45.52149963378906,Left
3576.946044921875,14811,1,1751.0,1752.0,1396.0,1453.0,1735.0,1749.0,1759.0,1759.0,-154.82647705078125,-5.224874019622803,-45.52149963378906,Left
3578.946044921875,14811,1,1701.0,1746.0,1641.0,1499.0,1721.0,1737.0,1765.0,1739.0,-154.82647705078125,-5.224874019622803,-45.52149963378906,Left
3580.946044921875,14811,1,1715.0,1727.0,1900.0,1781.0,1715.0,1727.0,1759.0,1775.0,-154.82647705078125,-5.224874019622803,-45.52149963378906,Left
3587.13427734375,14812,1,1692.0,1748.0,1927.0,1981.0,1735.0,1739.0,1753.0,1733.0,-154.82647705078125,-5.224874019622803,-45.52149963378906,Left
3589.13427734375,14812,1,1688.0,1752.0,1751.0,1956.0,1750.0,1753.0,1762.0,1737.0,-154.82647705078125,-5.224874019622803,-45.52149963378906,Left
3591.13427734375,14812,1,1805.0,1769.0,1756.0,1939.0,1772.0,1765.0,1757.0,1739.0,-154.82647705078125,-5.224874019622803,-45.52149963378906,Left
3593.13427734375,14812,1,1819.0,1765.0,1626.0,1927.0,1763.0,1756.0,1757.0,1720.0,-154.82647705078125,-5.224874019622803,-45.52149963378906,Left
3595.13427734375,14812,1,1806.0,1771.0,1593.0,1715.0,1779.0,1763.0,1755.0,1711.0,-154.82647705078125,-5.224874019622803,-45.52149963378906,Left
3591.463623046875,14813,1,1784.0,1769.0,1471.0,1657.0,1752.0,1755.0,1756.0,1688.0,-154.82647705078125,-5.224874019622803,-45.52149963378906,Left
3593.463623046875,14813,1,1738.0,1781.0,1579.0,1580.0,1763.0,1771.0,1755.0,1677.0,-154.82647705078125,-5.224874019622803,-45.52149963378906,Left
3595.463623046875,14813,1,1763.0,1751.0,1567.0,1527.0,1727.0,1719.0,1758.0,1733.0,-154.82647705078125,-5.224874019622803,-45.52149963378906,Left
3597.463623046875,14813,1,1831.0,1749.0,1672.0,1645.0,1743.0,1746.0,1759.0,1813.0,-154.82647705078125,-5.224874019622803,-45.52149963378906,Left
3599.463623046875,14813,1,1711.0,1721.0,1925.0,1875.0,1695.0,1721.0,1762.0,1769.0,-154.82647705078125,-5.224874019622803,-45.52149963378906,Left
3607.546142578125,14814,1,1648.0,1719.0,2023.0,1983.0,1716.0,1739.0,1755.0,1725.0,-154.82647705078125,-5.224874019622803,-45.52149963378906,Left
3609.546142578125,14814,1,1700.0,1735.0,1948.0,2003.0,1723.0,1752.0,1762.0,1740.0,-154.82647705078125,-5.224874019622803,-45.52149963378906,Left
3611.546142578125,14814,1,1719.0,1756.0,1813.0,1976.0,1751.0,1764.0,1768.0,1659.0,-154.82647705078125,-5.224874019622803,-45.52149963378906,Left
3613.546142578125,14814,1,1848.0,1775.0,1829.0,1791.0,1775.0,1775.0,1757.0,1705.0,-154.82647705078125,-5.224874019622803,-45.52149963378906,Left
3615.546142578125,14814,1,1783.0,1781.0,1719.0,1691.0,1763.0,1755.0,1757.0,1675.0,-154.82647705078125,-5.224874019622803,-45.52149963378906,Left
3607.546142578125,14815,1,1790.0,1815.0,1763.0,1719.0,1812.0,1755.0,1756.0,1723.0,-154.82647705078125,-5.224874019622803,-45.52149963378906,Left
3609.546142578125,14815,1,1779.0,1805.0,1827.0,1611.0,1786.0,1756.0,1752.0,1735.0,-154.82647705078125,-5.224874019622803,-45.52149963378906,Left
3611.546142578125,14815,1,1692.0,1771.0,1709.0,1559.0,1747.0,1742.0,1759.0,1655.0,-154.82647705078125,-5.224874019622803,-45.52149963378906,Left
3613.546142578125,14815,1,1783.0,1743.0,1677.0,1608.0,1740.0,1762.0,1759.0,1763.0,-154.77503967285156,-5.169300079345703,-45.500919342041016,Left
3615.546142578125,14815,1,1742.0,1724.0,1912.0,1847.0,1723.0,1748.0,1757.0,1703.0,-154.77503967285156,-5.169300079345703,-45.500919342041016,Left
3619.179443359375,14816,1,1803.0,1703.0,1803.0,1927.0,1707.0,1743.0,1758.0,1753.0,-154.77503967285156,-5.169300079345703,-45.500919342041016,Left
3621.179443359375,14816,1,1828.0,1710.0,1895.0,1974.0,1707.0,1742.0,1758.0,1511.0,-154.77503967285156,-5.169300079345703,-45.500919342041016,Left
3623.179443359375,14816,1,1619.0,1754.0,1758.0,1927.0,1728.0,1735.0,1763.0,2317.0,-154.77503967285156,-5.169300079345703,-45.500919342041016,Left
3625.179443359375,14816,1,1705.0,1787.0,1709.0,1863.0,1717.0,1738.0,1757.0,2393.0,-154.77503967285156,-5.169300079345703,-45.500919342041016,Left
3627.179443359375,14816,1,1613.0,1739.0,1605.0,1801.0,1610.0,1709.0,1755.0,2927.0,-154.77503967285156,-5.169300079345703,-45.500919342041016,Left
3619.179443359375,14817,1,1875.0,1781.0,1687.0,1741.0,1801.0,1742.0,1753.0,3031.0,-154.77503967285156,-5.169300079345703,-45.500919342041016,Left
3621.179443359375,14817,1,1775.0,1829.0,1426.0,1573.0,1877.0,1773.0,1757.0,2191.0,-154.77503967285156,-5.169300079345703,-45.500919342041016,Left
3623.179443359375,14817,1,1624.0,1782.0,1413.0,1576.0,1898.0,1767.0,1757.0,1487.0,-154.77503967285156,-5.169300079345703,-45.500919342041016,Left
3625.179443359375,14817,1,1762.0,1801.0,1525.0,1676.0,1893.0,1737.0,1757.0,1681.0,-154.77503967285156,-5.169300079345703,-45.500919342041016,Left
3627.179443359375,14817,1,1927.0,1763.0,2006.0,1801.0,1753.0,1725.0,1758.0,3797.0,-154.77503967285156,-5.169300079345703,-45.500919342041016,Left
3639.68115234375,14818,1,1799.0,1723.0,1972.0,2005.0,1704.0,1747.0,1759.0,3794.0,-154.77503967285156,-5.169300079345703,-45.500919342041016,Left
3641.68115234375,14818,1,1695.0,1711.0,1973.0,1941.0,1685.0,1739.0,1759.0,3781.0,-154.77503967285156,-5.169300079345703,-45.500919342041016,Left
3643.68115234375,14818,1,1487.0,1734.0,1659.0,1929.0,1671.0,1770.0,1762.0,3796.0,-154.77503967285156,-5.169300079345703,-45.500919342041016,Left
3645.68115234375,14818,1,1532.0,1759.0,1599.0,1892.0,1706.0,1789.0,1762.0,3795.0,-154.77503967285156,-5.169300079345703,-45.500919342041016,Left
3647.68115234375,14818,1,1663.0,1757.0,1629.0,1869.0,1741.0,1781.0,1757.0,3051.0,-154.77503967285156,-5.169300079345703,-45.500919342041016,Left
3654.3369140625,14819,1,1803.0,1659.0,1529.0,1768.0,1799.0,1751.0,1753.0,2215.0,-154.77503967285156,-5.169300079345703,-45.500919342041016,Left
3656.3369140625,14819,1,1959.0,1740.0,1507.0,1631.0,1895.0,1748.0,1757.0,1231.0,-154.77503967285156,-5.169300079345703,-45.500919342041016,Left
3658.3369140625,14819,1,1927.0,1758.0,1469.0,1519.0,1863.0,1743.0,1756.0,988.0,-154.77503967285156,-5.169300079345703,-45.500919342041016,Left
3660.3369140625,14819,1,1763.0,1734.0,1485.0,1543.0,1749.0,1741.0,1758.0,1669.0,-154.77503967285156,-5.169300079345703,-45.500919342041016,Left
3662.3369140625,14819,1,1721.0,1727.0,1629.0,1609.0,1684.0,1715.0,1757.0,3019.0,-154.77503967285156,-5.169300079345703,-45.500919342041016,Left
3654.3369140625,14820,1,1787.0,1755.0,2015.0,1893.0,1710.0,1735.0,1753.0,3805.0,-154.77503967285156,-5.169300079345703,-45.500919342041016,Left
3656.3369140625,14820,1,1775.0,1772.0,2167.0,1917.0,1727.0,1745.0,1763.0,3797.0,-154.77503967285156,-5.169300079345703,-45.500919342041016,Left
3658.3369140625,14820,1,1757.0,1783.0,2199.0,1799.0,1719.0,1741.0,1761.0,3002.0,-154.77503967285156,-5.169300079345703,-45.500919342041016,Left
3660.3369140625,14820,1,1787.0,1782.0,2123.0,1805.0,1723.0,1749.0,1759.0,3783.0,-154.77503967285156,-5.169300079345703,-45.500919342041016,Left
3662.3369140625,14820,1,1699.0,1773.0,2196.0,1867.0,1717.0,1751.0,1762.0,3798.0,-154.77503967285156,-5.169300079345703,-45.500919342041016,Left
3687.7265625,14821,1,1815.0,1770.0,2129.0,1797.0,1745.0,1765.0,1757.0,2839.0,-154.77503967285156,-5.169300079345703,-45.500919342041016,Left
3689.7265625,14821,1,1877.0,1761.0,1949.0,1769.0,1767.0,1775.0,1759.0,1267.0,-154.77503967285156,-5.169300079345703,-45.500919342041016,Left
3691.7265625,14821,1,1837.0,1768.0,1773.0,1618.0,1753.0,1769.0,1758.0,629.0,-154.77503967285156,-5.169300079345703,-45.500919342041016,Left
3693.7265625,14821,1,1784.0,1751.0,1792.0,1587.0,1757.0,1752.0,1759.0,1420.0,-154.77503967285156,-5.169300079345703,-45.500919342041016,Left
3695.7265625,14821,1,1735.0,1757.0,1638.0,1613.0,1737.0,1727.0,1762.0,2639.0,-154.77503967285156,-5.169300079345703,-45.500919342041016,Left
3699.74267578125,14822,1,1763.0,1751.0,1806.0,1766.0,1745.0,1749.0,1762.0,3798.0,-154.77503967285156,-5.169300079345703,-45.500919342041016,Left
3701.74267578125,14822,1,1827.0,1768.0,1851.0,1869.0,1759.0,1750.0,1759.0,3794.0,-154.26988220214844,-5.127789497375488,-44.9720573425293,Left
3703.74267578125,14822,1,1747.0,1771.0,1782.0,1933.0,1743.0,1746.0,1759.0,3507.0,-154.26988220214844,-5.127789497375488,-44.9720573425293,Left
3705.74267578125,14822,1,1663.0,1746.0,1655.0,1894.0,1695.0,1735.0,1761.0,1684.0,-154.26988220214844,-5.127789497375488,-44.9720573425293,Left
3707.74267578125,14822,1,1655.0,1798.0,1578.0,1941.0,1727.0,1763.0,1763.0,845.0,-154.26988220214844,-5.127789497375488,-44.9720573425293,Left
3699.74267578125,14823,1,1755.0,1801.0,1515.0,1741.0,1762.0,1763.0,1755.0,493.0,-154.26988220214844,-5.127789497375488,-44.9720573425293,Left
3701.74267578125,14823,1,1767.0,1799.0,1513.0,1700.0,1759.0,1759.0,1759.0,133.0,-154.26988220214844,-5.127789497375488,-44.9720573425293,Left
3703.74267578125,14823,1,1752.0,1784.0,1393.0,1571.0,1740.0,1753.0,1759.0,0.0,-154.26988220214844,-5.127789497375488,-44.9720573425293,Left
3705.74267578125,14823,1,1721.0,1740.0,1717.0,1610.0,1715.0,1739.0,1759.0,635.0,-154.26988220214844,-5.127789497375488,-44.9720573425293,Left
3707.74267578125,14823,1,1742.0,1726.0,1683.0,1749.0,1711.0,1737.0,1761.0,2285.0,-154.26988220214844,-5.127789497375488,-44.9720573425293,Left
3704.05126953125,14824,1,1786.0,1741.0,1747.0,1878.0,1752.0,1736.0,1752.0,3792.0,-154.26988220214844,-5.127789497375488,-44.9720573425293,Left
3706.05126953125,14824,1,1791.0,1736.0,1637.0,1939.0,1720.0,1754.0,1763.0,3796.0,-154.26988220214844,-5.127789497375488,-44.9720573425293,Left
3708.05126953125,14824,1,1807.0,1745.0,1657.0,1955.0,1737.0,1757.0,1757.0,3801.0,-154.26988220214844,-5.127789497375488,-44.9720573425293,Left
3710.05126953125,14824,1,1695.0,1736.0,1563.0,1943.0,1705.0,1739.0,1759.0,3531.0,-154.26988220214844,-5.127789497375488,-44.9720573425293,Left
3712.05126953125,14824,1,1722.0,1773.0,1460.0,1915.0,1790.0,1763.0,1756.0,2157.0,-154.26988220214844,-5.127789497375488,-44.9720573425293,Left
3817.255126953125,14825,1,1781.0,1780.0,1447.0,1824.0,1875.0,1759.0,1753.0,637.0,-154.26988220214844,-5.127789497375488,-44.9720573425293,Left
3819.255126953125,14825,1,1845.0,1844.0,1568.0,1679.0,1874.0,1761.0,1759.0,0.0,-154.26988220214844,-5.127789497375488,-44.9720573425293,Left
3821.255126953125,14825,1,1761.0,1775.0,1421.0,1513.0,1752.0,1755.0,1758.0,0.0,-154.26988220214844,-5.127789497375488,-44.9720573425293,Left
3823.255126953125,14825,1,1651.0,1757.0,1865.0,1478.0,1685.0,1740.0,1755.0,0.0,-154.26988220214844,-5.127789497375488,-44.9720573425293,Left
3825.255126953125,14825,1,1683.0,1749.0,1995.0,1563.0,1673.0,1721.0,1757.0,955.0,-154.26988220214844,-5.127789497375488,-44.9720573425293,Left
3817.255126953125,14826,1,1775.0,1784.0,2067.0,1821.0,1791.0,1754.0,1751.0,2195.0,-154.26988220214844,-5.127789497375488,-44.9720573425293,Left
3819.255126953125,14826,1,1807.0,1803.0,2131.0,1919.0,1849.0,1751.0,1757.0,3003.0,-154.26988220214844,-5.127789497375488,-44.9720573425293,Left
3821.255126953125,14826,1,1803.0,1771.0,2220.0,1908.0,1790.0,1752.0,1756.0,2877.0,-154.26988220214844,-5.127789497375488,-44.9720573425293,Left
3823.255126953125,14826,1,1771.0,1763.0,2153.0,1869.0,1739.0,1743.0,1762.0,2127.0,-154.26988220214844,-5.127789497375488,-44.9720573425293,Left
3825.255126953125,14826,1,1757.0,1752.0,2166.0,1791.0,1720.0,1749.0,1755.0,1208.0,-154.26988220214844,-5.127789497375488,-44.9720573425293,Left
3817.255126953125,14827,1,1707.0,1753.0,2021.0,1607.0,1695.0,1742.0,1756.0,327.0,-154.26988220214844,-5.127789497375488,-44.9720573425293,Left
3819.255126953125,14827,1,1753.0,1765.0,1908.0,1587.0,1721.0,1759.0,1757.0,0.0,-154.26988220214844,-5.127789497375488,-44.9720573425293,Left
3821.255126953125,14827,1,1798.0,1780.0,1390.0,1436.0,1763.0,1753.0,1759.0,0.0,-154.26988220214844,-5.127789497375488,-44.9720573425293,Left
3823.255126953125,14827,1,1751.0,1762.0,1851.0,1471.0,1747.0,1749.0,1763.0,0.0,-154.26988220214844,-5.127789497375488,-44.9720573425293,Left
3825.255126953125,14827,1,1775.0,1755.0,1907.0,1465.0,1739.0,1741.0,1755.0,819.0,-154.26988220214844,-5.127789497375488,-44.9720573425293,Left
3817.255126953125,14828,1,1775.0,1747.0,2014.0,1707.0,1741.0,1751.0,1756.0,3102.0,-154.26988220214844,-5.127789497375488,-44.9720573425293,Left
3819.255126953125,14828,1,1775.0,1754.0,2139.0,1739.0,1753.0,1753.0,1751.0,3817.0,-154.26988220214844,-5.127789497375488,-44.9720573425293,Left
3821.255126953125,14828,1,1789.0,1765.0,1912.0,1869.0,1753.0,1758.0,1759.0,3543.0,-154.26988220214844,-5.127789497375488,-44.9720573425293,Left
3823.255126953125,14828,1,1769.0,1765.0,1875.0,1836.0,1755.0,1751.0,1759.0,2459.0,-152.05169677734375,-6.668056011199951,-43.79468536376953,Left
3825.255126953125,14828,1,1747.0,1755.0,1885.0,1747.0,1743.0,1748.0,1757.0,1466.0,-152.05169677734375,-6.668056011199951,-43.79468536376953,Left
3817.255126953125,14829,1,1746.0,1757.0,1889.0,1659.0,1737.0,1750.0,1757.0,468.0,-152.05169677734375,-6.668056011199951,-43.79468536376953,Left
3819.255126953125,14829,1,1763.0,1754.0,1641.0,1548.0,1739.0,1757.0,1758.0,0.0,-152.05169677734375,-6.668056011199951,-43.79468536376953,Left
3821.255126953125,14829,1,1775.0,1775.0,1463.0,1399.0,1768.0,1748.0,1763.0,0.0,-152.05169677734375,-6.668056011199951,-43.79468536376953,Left
3823.255126953125,14829,1,1751.0,1751.0,1417.0,1418.0,1734.0,1752.0,1757.0,0.0,-152.05169677734375,-6.668056011199951,-43.79468536376953,Left
3825.255126953125,14829,1,1742.0,1735.0,1625.0,1559.0,1726.0,1724.0,1757.0,846.0,-152.05169677734375,-6.668056011199951,-43.79468536376953,Left
3817.255126953125,14830,1,1749.0,1752.0,1846.0,1831.0,1737.0,1758.0,1751.0,3435.0,-152.05169677734375,-6.668056011199951,-43.79468536376953,Left
3819.255126953125,14830,1,1767.0,1738.0,1891.0,1909.0,1736.0,1747.0,1759.0,3798.0,-152.05169677734375,-6.668056011199951,-43.79468536376953,Left
3821.255126953125,14830,1,1739.0,1769.0,1951.0,2041.0,1737.0,1755.0,1755.0,3799.0,-152.05169677734375,-6.668056011199951,-43.79468536376953,Left
3823.255126953125,14830,1,1748.0,1765.0,1755.0,2003.0,1743.0,1751.0,1763.0,2805.0,-152.05169677734375,-6.668056011199951,-43.79468536376953,Left
3825.255126953125,14830,1,1755.0,1753.0,1789.0,1893.0,1741.0,1748.0,1758.0,2008.0,-152.05169677734375,-6.668056011199951,-43.79468536376953,Left
3817.255126953125,14831,1,1772.0,1773.0,1493.0,1882.0,1757.0,1756.0,1748.0,653.0,-152.05169677734375,-6.668056011199951,-43.79468536376953,Left
3819.255126953125,14831,1,1786.0,1752.0,1305.0,1833.0,1763.0,1759.0,1758.0,0.0,-152.05169677734375,-6.668056011199951,-43.79468536376953,Left
3821.255126953125,14831,1,1755.0,1769.0,1013.0,1590.0,1766.0,1759.0,1755.0,0.0,-152.05169677734375,-6.668056011199951,-43.79468536376953,Left
3823.255126953125,14831,1,1803.0,1727.0,1061.0,1561.0,1723.0,1735.0,1757.0,0.0,-152.05169677734375,-6.668056011199951,-43.79468536376953,Left
3825.255126953125,14831,1,1960.0,1743.0,1342.0,1575.0,1751.0,1749.0,1763.0,1309.0,-152.05169677734375,-6.668056011199951,-43.79468536376953,Left
3817.255126953125,14832,1,1937.0,1753.0,1485.0,1876.0,1751.0,1747.0,1757.0,3793.0,-152.05169677734375,-6.668056011199951,-43.79468536376953,Left
3819.255126953125,14832,1,1757.0,1749.0,1612.0,2041.0,1743.0,1738.0,1759.0,3797.0,-152.05169677734375,-6.668056011199951,-43.79468536376953,Left
3821.255126953125,14832,1,1663.0,1769.0,1705.0,2056.0,1749.0,1755.0,1758.0,3793.0,-152.05169677734375,-6.668056011199951,-43.79468536376953,Left
3823.255126953125,14832,1,1797.0,1769.0,1545.0,1988.0,1765.0,1763.0,1759.0,2677.0,-152.05169677734375,-6.668056011199951,-43.79468536376953,Left
3825.255126953125,14832,1,1848.0,1785.0,1389.0,1912.0,1780.0,1768.0,1758.0,1189.0,-152.05169677734375,-6.668056011199951,-43.79468536376953,Left
3817.255126953125,14833,1,1773.0,1768.0,1399.0,1797.0,1765.0,1747.0,1748.0,0.0,-152.05169677734375,-6.668056011199951,-43.79468536376953,Left
3819.255126953125,14833,1,1758.0,1767.0,1495.0,1748.0,1769.0,1755.0,1757.0,0.0,-152.05169677734375,-6.668056011199951,-43.79468536376953,Left
3821.255126953125,14833,1,1615.0,1768.0,1407.0,1605.0,1675.0,1715.0,1758.0,0.0,-152.05169677734375,-6.668056011199951,-43.79468536376953,Left
3823.255126953125,14833,1,1661.0,1749.0,1468.0,1673.0,1715.0,1725.0,1757.0,0.0,-152.05169677734375,-6.668056011199951,-43.79468536376953,Left
3825.255126953125,14833,1,1727.0,1769.0,1597.0,1737.0,1749.0,1737.0,1757.0,0.0,-152.05169677734375,-6.668056011199951,-43.79468536376953,Left
3817.255126953125,14834,1,1739.0,1765.0,1871.0,1865.0,1758.0,1740.0,1752.0,0.0,-152.05169677734375,-6.668056011199951,-43.79468536376953,Left
3819.255126953125,14834,1,1740.0,1761.0,2063.0,1939.0,1742.0,1761.0,1758.0,0.0,-152.05169677734375,-6.668056011199951,-43.79468536376953,Left
3821.255126953125,14834,1,1755.0,1753.0,2087.0,1913.0,1749.0,1751.0,1759.0,0.0,-152.05169677734375,-6.668056011199951,-43.79468536376953,Left
3823.255126953125,14834,1,1676.0,1772.0,1854.0,1895.0,1771.0,1767.0,1759.0,0.0,-152.05169677734375,-6.668056011199951,-43.79468536376953,Left
3825.255126953125,14834,1,1695.0,1763.0,1867.0,1884.0,1771.0,1765.0,1758.0,0.0,-152.05169677734375,-6.668056011199951,-43.79468536376953,Left
3817.255126953125,14835,1,1642.0,1749.0,1891.0,1791.0,1758.0,1764.0,1759.0,0.0,-152.05169677734375,-6.668056011199951,-43.79468536376953,Left
3819.255126953125,14835,1,1627.0,1727.0,1763.0,1677.0,1699.0,1721.0,1759.0,0.0,-144.37039184570312,-9.383874893188477,-40.98197937011719,Left
3821.255126953125,14835,1,1716.0,1757.0,1645.0,1444.0,1756.0,1751.0,1755.0,0.0,-144.37039184570312,-9.383874893188477,-40.98197937011719,Left
3823.255126953125,14835,1,1768.0,1735.0,1610.0,1401.0,1740.0,1748.0,1757.0,0.0,-144.37039184570312,-9.383874893188477,-40.98197937011719,Left
3825.255126953125,14835,1,1868.0,1755.0,1941.0,1511.0,1765.0,1749.0,1758.0,0.0,-144.37039184570312,-9.383874893188477,-40.98197937011719,Left
3829.348388671875,14836,1,1874.0,1754.0,2296.0,1813.0,1767.0,1756.0,1748.0,0.0,-144.37039184570312,-9.383874893188477,-40.98197937011719,Left
3831.348388671875,14836,1,1817.0,1763.0,2248.0,1893.0,1754.0,1755.0,1758.0,0.0,-144.37039184570312,-9.383874893188477,-40.98197937011719,Left
3833.348388671875,14836,1,1688.0,1737.0,2207.0,1908.0,1719.0,1747.0,1759.0,0.0,-144.37039184570312,-9.383874893188477,-40.98197937011719,Left
3835.348388671875,14836,1,1709.0,1752.0,2073.0,1799.0,1737.0,1746.0,1761.0,0.0,-144.37039184570312,-9.383874893188477,-40.98197937011719,Left
3837.348388671875,14836,1,1911.0,1767.0,2079.0,1742.0,1765.0,1751.0,1759.0,229.0,-144.37039184570312,-9.383874893188477,-40.98197937011719,Left
3829.671142578125,14837,1,1965.0,1743.0,1765.0,1673.0,1775.0,1767.0,1757.0,487.0,-144.37039184570312,-9.383874893188477,-40.98197937011719,Left
3831.671142578125,14837,1,2229.0,1751.0,1737.0,1603.0,1762.0,1753.0,1758.0,686.0,-144.37039184570312,-9.383874893188477,-40.98197937011719,Left
3833.671142578125,14837,1,2071.0,1755.0,1781.0,1421.0,1753.0,1743.0,1759.0,845.0,-144.37039184570312,-9.383874893188477,-40.98197937011719,Left
3835.671142578125,14837,1,1947.0,1740.0,1767.0,1389.0,1743.0,1747.0,1757.0,981.0,-144.37039184570312,-9.383874893188477,-40.98197937011719,Left
3837.671142578125,14837,1,1884.0,1757.0,1749.0,1513.0,1733.0,1747.0,1756.0,1100.0,-144.37039184570312,-9.383874893188477,-40.98197937011719,Left
3845.331787109375,14838,1,1835.0,1750.0,1983.0,1685.0,1739.0,1752.0,1757.0,1198.0,-144.37039184570312,-9.383874893188477,-40.98197937011719,Left
3847.331787109375,14838,1,1844.0,1767.0,2138.0,1798.0,1739.0,1747.0,1763.0,1279.0,-144.37039184570312,-9.383874893188477,-40.98197937011719,Left
3849.331787109375,14838,1,1644.0,1763.0,1881.0,1901.0,1721.0,1733.0,1759.0,1351.0,-144.37039184570312,-9.383874893188477,-40.98197937011719,Left
3851.331787109375,14838,1,1673.0,1763.0,1828.0,2003.0,1736.0,1740.0,1759.0,1407.0,-144.37039184570312,-9.383874893188477,-40.98197937011719,Left
3853.331787109375,14838,1,1739.0,1775.0,1639.0,1847.0,1759.0,1735.0,1757.0,1455.0,-144.37039184570312,-9.383874893188477,-40.98197937011719,Left
3848.906005859375,14839,1,1789.0,1771.0,1453.0,1692.0,1769.0,1751.0,1752.0,1515.0,-144.37039184570312,-9.383874893188477,-40.98197937011719,Left
3850.906005859375,14839,1,1823.0,1759.0,1503.0,1700.0,1774.0,1759.0,1763.0,1545.0,-144.37039184570312,-9.383874893188477,-40.98197937011719,Left
3852.906005859375,14839,1,1827.0,1756.0,1515.0,1593.0,1779.0,1765.0,1758.0,1573.0,-144.37039184570312,-9.383874893188477,-40.98197937011719,Left
3854.906005859375,14839,1,1803.0,1753.0,1551.0,1559.0,1757.0,1765.0,1755.0,1592.0,-144.37039184570312,-9.383874893188477,-40.98197937011719,Left
3856.906005859375,14839,1,1851.0,1757.0,1866.0,1595.0,1741.0,1747.0,1757.0,1619.0,-144.37039184570312,-9.383874893188477,-40.98197937011719,Left
3864.730712890625,14840,1,1929.0,1735.0,2189.0,1767.0,1723.0,1724.0,1759.0,1635.0,-144.37039184570312,-9.383874893188477,-40.98197937011719,Left
3866.730712890625,14840,1,1927.0,1748.0,2263.0,1907.0,1751.0,1745.0,1759.0,1647.0,-144.37039184570312,-9.383874893188477,-40.98197937011719,Left
3868.730712890625,14840,1,1897.0,1752.0,2163.0,2026.0,1741.0,1745.0,1763.0,1656.0,-144.37039184570312,-9.383874893188477,-40.98197937011719,Left
3870.730712890625,14840,1,1903.0,1773.0,1949.0,2040.0,1739.0,1757.0,1763.0,1672.0,-144.37039184570312,-9.383874893188477,-40.98197937011719,Left
3872.730712890625,14840,1,1839.0,1763.0,1704.0,1903.0,1710.0,1755.0,1757.0,1683.0,-144.37039184570312,-9.383874893188477,-40.98197937011719,Left
3864.730712890625,14841,1,1762.0,1749.0,1607.0,1835.0,1759.0,1758.0,1757.0,1691.0,-144.37039184570312,-9.383874893188477,-40.98197937011719,Left
3866.730712890625,14841,1,1828.0,1752.0,1563.0,1709.0,1764.0,1751.0,1757.0,1695.0,-144.37039184570312,-9.383874893188477,-40.98197937011719,Left
3868.730712890625,14841,1,1663.0,1785.0,1417.0,1699.0,1784.0,1757.0,1759.0,1703.0,-137.83157348632812,-11.208525657653809,-37.83481216430664,Left
3870.730712890625,14841,1,1646.0,1765.0,1353.0,1701.0,1747.0,1743.0,1757.0,1705.0,-137.83157348632812,-11.208525657653809,-37.83481216430664,Left
3872.730712890625,14841,1,1763.0,1765.0,1523.0,1655.0,1772.0,1757.0,1757.0,1711.0,-137.83157348632812,-11.208525657653809,-37.83481216430664,Left
3881.043701171875,14842,1,1850.0,1754.0,1831.0,1775.0,1784.0,1767.0,1766.0,1709.0,-137.83157348632812,-11.208525657653809,-37.83481216430664,Left
3883.043701171875,14842,1,1863.0,1749.0,2052.0,1919.0,1764.0,1757.0,1757.0,1716.0,-137.83157348632812,-11.208525657653809,-37.83481216430664,Left
3885.043701171875,14842,1,1941.0,1764.0,2172.0,2019.0,1737.0,1725.0,1757.0,1715.0,-137.83157348632812,-11.208525657653809,-37.83481216430664,Left
3887.043701171875,14842,1,1941.0,1787.0,2245.0,1899.0,1745.0,1720.0,1759.0,1723.0,-137.83157348632812,-11.208525657653809,-37.83481216430664,Left
3889.043701171875,14842,1,1977.0,1767.0,1956.0,1829.0,1742.0,1741.0,1759.0,1721.0,-137.83157348632812,-11.208525657653809,-37.83481216430664,Left
3893.6298828125,14843,1,2039.0,1747.0,1831.0,1723.0,1741.0,1739.0,1757.0,1723.0,-137.83157348632812,-11.208525657653809,-37.83481216430664,Left
3895.6298828125,14843,1,2109.0,1753.0,1766.0,1686.0,1747.0,1755.0,1757.0,1727.0,-137.83157348632812,-11.208525657653809,-37.83481216430664,Left
3897.6298828125,14843,1,2099.0,1758.0,1517.0,1519.0,1750.0,1763.0,1757.0,1725.0,-137.83157348632812,-11.208525657653809,-37.83481216430664,Left
3899.6298828125,14843,1,1991.0,1757.0,1609.0,1454.0,1743.0,1756.0,1762.0,1735.0,-137.83157348632812,-11.208525657653809,-37.83481216430664,Left
3901.6298828125,14843,1,2029.0,1752.0,1727.0,1607.0,1738.0,1751.0,1757.0,1727.0,-137.83157348632812,-11.208525657653809,-37.83481216430664,Left
3897.9453125,14844,1,2075.0,1751.0,1723.0,1660.0,1756.0,1753.0,1753.0,1727.0,-137.83157348632812,-11.208525657653809,-37.83481216430664,Left
3899.9453125,14844,1,2073.0,1749.0,1863.0,1673.0,1753.0,1751.0,1758.0,1733.0,-137.83157348632812,-11.208525657653809,-37.83481216430664,Left
3901.9453125,14844,1,2263.0,1747.0,1991.0,1741.0,1755.0,1747.0,1762.0,1725.0,-137.83157348632812,-11.208525657653809,-37.83481216430664,Left
3903.9453125,14844,1,2201.0,1751.0,1813.0,1811.0,1753.0,1749.0,1755.0,1735.0,-137.83157348632812,-11.208525657653809,-37.83481216430664,Left
3905.9453125,14844,1,1959.0,1741.0,1791.0,1809.0,1735.0,1749.0,1759.0,1735.0,-137.83157348632812,-11.208525657653809,-37.83481216430664,Left
4054.60791015625,14845,1,1737.0,1779.0,1693.0,1819.0,1756.0,1767.0,1762.0,1736.0,-137.83157348632812,-11.208525657653809,-37.83481216430664,Left
4056.60791015625,14845,1,1541.0,1763.0,1706.0,1757.0,1737.0,1740.0,1755.0,1737.0,-137.83157348632812,-11.208525657653809,-37.83481216430664,Left
4058.60791015625,14845,1,1341.0,1773.0,1720.0,1703.0,1747.0,1752.0,1758.0,1736.0,-137.83157348632812,-11.208525657653809,-37.83481216430664,Left
4060.60791015625,14845,1,1241.0,1739.0,1784.0,1631.0,1735.0,1751.0,1759.0,1737.0,-137.83157348632812,-11.208525657653809,-37.83481216430664,Left
4062.60791015625,14845,1,1276.0,1749.0,1938.0,1709.0,1766.0,1742.0,1758.0,1738.0,-137.83157348632812,-11.208525657653809,-37.83481216430664,Left
4054.60791015625,14846,1,1059.0,2011.0,2025.0,1656.0,1751.0,1757.0,1759.0,1737.0,-137.83157348632812,-11.208525657653809,-37.83481216430664,Left
4056.60791015625,14846,1,1087.0,1947.0,2168.0,1725.0,1727.0,1721.0,1757.0,1739.0,-137.83157348632812,-11.208525657653809,-37.83481216430664,Left
4058.60791015625,14846,1,1157.0,1874.0,2200.0,1799.0,1751.0,1739.0,1761.0,1740.0,-137.83157348632812,-11.208525657653809,-37.83481216430664,Left
4060.60791015625,14846,1,645.0,1781.0,2101.0,1837.0,1749.0,1765.0,1757.0,1738.0,-137.83157348632812,-11.208525657653809,-37.83481216430664,Left
4062.60791015625,14846,1,265.0,1755.0,2028.0,1817.0,1763.0,1752.0,1755.0,1739.0,-137.83157348632812,-11.208525657653809,-37.83481216430664,Left
4054.60791015625,14847,1,0.0,1703.0,1855.0,1761.0,1756.0,1747.0,1756.0,1740.0,-137.83157348632812,-11.208525657653809,-37.83481216430664,Left
4056.60791015625,14847,1,0.0,1677.0,1724.0,1702.0,1739.0,1741.0,1759.0,1741.0,-137.83157348632812,-11.208525657653809,-37.83481216430664,Left
4058.60791015625,14847,1,0.0,1695.0,1491.0,1650.0,1759.0,1752.0,1757.0,1737.0,-137.83157348632812,-11.208525657653809,-37.83481216430664,Left
4060.60791015625,14847,1,1117.0,1710.0,1293.0,1647.0,1766.0,1737.0,1763.0,1741.0,-137.83157348632812,-11.208525657653809,-37.83481216430664,Left
4062.60791015625,14847,1,2879.0,1689.0,1486.0,1684.0,1757.0,1749.0,1757.0,1741.0,-137.83157348632812,-11.208525657653809,-37.83481216430664,Left
4054.60791015625,14848,1,2899.0,1653.0,1803.0,1716.0,1717.0,1774.0,1762.0,1743.0,-137.83157348632812,-11.208525657653809,-37.83481216430664,Left
4056.60791015625,14848,1,2591.0,1711.0,1995.0,1842.0,1711.0,1749.0,1763.0,1741.0,-134.23048400878906,-10.883357048034668,-35.82725143432617,Left
4058.60791015625,14848,1,3173.0,1705.0,1897.0,1844.0,1721.0,1743.0,1758.0,1740.0,-134.23048400878906,-10.883357048034668,-35.82725143432617,Left
4060.60791015625,14848,1,3824.0,1757.0,2055.0,1851.0,1757.0,1751.0,1492.0,1739.0,-134.23048400878906,-10.883357048034668,-35.82725143432617,Left
4062.60791015625,14848,1,3343.0,1780.0,1952.0,1897.0,1771.0,1737.0,1112.0,1742.0,-134.23048400878906,-10.883357048034668,-35.82725143432617,Left
4054.60791015625,14849,1,2824.0,1765.0,1962.0,1931.0,1766.0,1743.0,0.0,1743.0,-134.23048400878906,-10.883357048034668,-35.82725143432617,Left
4056.60791015625,14849,1,2463.0,1769.0,1925.0,1814.0,1741.0,1784.0,0.0,1743.0,-134.23048400878906,-10.883357048034668,-35.82725143432617,Left
4058.60791015625,14849,1,2266.0,1765.0,1759.0,1821.0,1747.0,1753.0,0.0,1741.0,-134.23048400878906,-10.883357048034668,-35.82725143432617,Left
4060.60791015625,14849,1,2137.0,1781.0,1417.0,1753.0,1789.0,1753.0,0.0,1743.0,-134.23048400878906,-10.883357048034668,-35.82725143432617,Left
4062.60791015625,14849,1,1981.0,1783.0,1568.0,1727.0,1823.0,1811.0,0.0,1742.0,-134.23048400878906,-10.883357048034668,-35.82725143432617,Left
4054.60791015625,14850,1,1790.0,1738.0,1751.0,1770.0,1747.0,1735.0,0.0,1740.0,-134.23048400878906,-10.883357048034668,-35.82725143432617,Left
4056.60791015625,14850,1,1497.0,1717.0,1909.0,1786.0,1715.0,1715.0,0.0,1739.0,-134.23048400878906,-10.883357048034668,-35.82725143432617,Left
4058.60791015625,14850,1,1149.0,1700.0,1941.0,1821.0,1706.0,1740.0,0.0,1743.0,-134.23048400878906,-10.883357048034668,-35.82725143432617,Left
4060.60791015625,14850,1,1079.0,1683.0,1756.0,1898.0,1701.0,1715.0,0.0,1741.0,-134.23048400878906,-10.883357048034668,-35.82725143432617,Left
4062.60791015625,14850,1,1001.0,1716.0,1619.0,1919.0,1725.0,1769.0,0.0,1741.0,-134.23048400878906,-10.883357048034668,-35.82725143432617,Left
4054.60791015625,14851,1,1081.0,1735.0,1385.0,1848.0,1757.0,1755.0,0.0,1741.0,-134.23048400878906,-10.883357048034668,-35.82725143432617,Left
4056.60791015625,14851,1,1161.0,1759.0,1374.0,1755.0,1747.0,1723.0,0.0,1743.0,-134.23048400878906,-10.883357048034668,-35.82725143432617,Left
4058.60791015625,14851,1,1307.0,1774.0,1319.0,1751.0,1757.0,1739.0,0.0,1739.0,-134.23048400878906,-10.883357048034668,-35.82725143432617,Left
4060.60791015625,14851,1,1491.0,1799.0,1363.0,1659.0,1819.0,1753.0,285.0,1745.0,-134.23048400878906,-10.883357048034668,-35.82725143432617,Left
4062.60791015625,14851,1,2505.0,1785.0,1561.0,1554.0,1771.0,1747.0,549.0,1741.0,-134.23048400878906,-10.883357048034668,-35.82725143432617,Left
4054.60791015625,14852,1,2551.0,1755.0,1855.0,1530.0,1757.0,1748.0,777.0,1743.0,-134.23048400878906,-10.883357048034668,-35.82725143432617,Left
4056.60791015625,14852,1,2429.0,1775.0,1973.0,1622.0,1751.0,1765.0,927.0,1741.0,-134.23048400878906,-10.883357048034668,-35.82725143432617,Left
4058.60791015625,14852,1,1947.0,1767.0,1907.0,1721.0,1737.0,1721.0,1072.0,1741.0,-134.23048400878906,-10.883357048034668,-35.82725143432617,Left
4060.60791015625,14852,1,1563.0,1773.0,1647.0,1797.0,1735.0,1723.0,1189.0,1745.0,-134.23048400878906,-10.883357048034668,-35.82725143432617,Left
4062.60791015625,14852,1,1677.0,1765.0,1831.0,1753.0,1720.0,1765.0,1287.0,1740.0,-134.23048400878906,-10.883357048034668,-35.82725143432617,Left
4054.60791015625,14853,1,2207.0,1784.0,1626.0,1740.0,1742.0,1783.0,1373.0,1747.0,-134.23048400878906,-10.883357048034668,-35.82725143432617,Left
4056.60791015625,14853,1,2053.0,1752.0,1626.0,1673.0,1746.0,1775.0,1431.0,1743.0,-134.23048400878906,-10.883357048034668,-35.82725143432617,Left
4058.60791015625,14853,1,3665.0,1763.0,1543.0,1612.0,1747.0,1771.0,1485.0,1742.0,-134.23048400878906,-10.883357048034668,-35.82725143432617,Left
4060.60791015625,14853,1,3827.0,1761.0,1517.0,1541.0,1743.0,1736.0,1529.0,1743.0,-134.23048400878906,-10.883357048034668,-35.82725143432617,Left
4062.60791015625,14853,1,3819.0,1767.0,1405.0,1583.0,1705.0,1719.0,1571.0,1747.0,-134.23048400878906,-10.883357048034668,-35.82725143432617,Left
4054.60791015625,14854,1,3407.0,1756.0,1629.0,1630.0,1723.0,1750.0,1599.0,1746.0,-134.23048400878906,-10.883357048034668,-35.82725143432617,Left
4056.60791015625,14854,1,1677.0,1755.0,1733.0,1737.0,1735.0,1740.0,1623.0,1745.0,-134.23048400878906,-10.883357048034668,-35.82725143432617,Left
4058.60791015625,14854,1,414.0,1752.0,1728.0,1805.0,1743.0,1751.0,1644.0,1741.0,-129.55538940429688,-9.393746376037598,-33.037086486816406,Left
4060.60791015625,14854,1,232.0,1763.0,1673.0,1837.0,1751.0,1751.0,1660.0,1743.0,-129.55538940429688,-9.393746376037598,-33.037086486816406,Left
4062.60791015625,14854,1,117.0,1756.0,1675.0,1800.0,1747.0,1755.0,1678.0,1743.0,-129.55538940429688,-9.393746376037598,-33.037086486816406,Left
4054.60791015625,14855,1,3097.0,1767.0,1553.0,1804.0,1756.0,1763.0,1689.0,1745.0,-129.55538940429688,-9.393746376037598,-33.037086486816406,Left
4056.60791015625,14855,1,3387.0,1769.0,1510.0,1725.0,1771.0,1763.0,1695.0,1743.0,-129.55538940429688,-9.393746376037598,-33.037086486816406,Left
4058.60791015625,14855,1,2981.0,1757.0,1645.0,1669.0,1757.0,1755.0,1705.0,1743.0,-129.55538940429688,-9.393746376037598,-33.037086486816406,Left
4060.60791015625,14855,1,447.0,1758.0,1518.0,1581.0,1765.0,1751.0,1707.0,1747.0,-129.55538940429688,-9.393746376037598,-33.037086486816406,Left
4062.60791015625,14855,1,3822.0,1750.0,1723.0,1639.0,1763.0,1758.0,1716.0,1743.0,-129.55538940429688,-9.393746376037598,-33.037086486816406,Left
4054.60791015625,14856,1,3819.0,1740.0,1663.0,1686.0,1726.0,1733.0,1721.0,1740.0,-129.55538940429688,-9.393746376037598,-33.037086486816406,Left
4056.60791015625,14856,1,3848.0,1738.0,1847.0,1789.0,1737.0,1742.0,1727.0,1747.0,-129.55538940429688,-9.393746376037598,-33.037086486816406,Left
4058.60791015625,14856,1,3821.0,1751.0,1917.0,1876.0,1743.0,1751.0,1735.0,1743.0,-129.55538940429688,-9.393746376037598,-33.037086486816406,Left
4060.60791015625,14856,1,3819.0,1757.0,1919.0,1894.0,1771.0,1757.0,1735.0,1746.0,-129.55538940429688,-9.393746376037598,-33.037086486816406,Left
4062.60791015625,14856,1,3813.0,1757.0,1736.0,1917.0,1765.0,1753.0,1737.0,1746.0,-129.55538940429688,-9.393746376037598,-33.037086486816406,Left
4054.60791015625,14857,1,3821.0,1753.0,1753.0,1901.0,1743.0,1754.0,1741.0,1746.0,-129.55538940429688,-9.393746376037598,-33.037086486816406,Left
4056.60791015625,14857,1,11.0,1769.0,1755.0,1881.0,1768.0,1754.0,1724.0,1745.0,-129.55538940429688,-9.393746376037598,-33.037086486816406,Left
4058.60791015625,14857,1,0.0,1750.0,1780.0,1791.0,1752.0,1737.0,1742.0,1747.0,-129.55538940429688,-9.393746376037598,-33.037086486816406,Left
4060.60791015625,14857,1,0.0,1765.0,1619.0,1669.0,1743.0,1753.0,1743.0,1747.0,-129.55538940429688,-9.393746376037598,-33.037086486816406,Left
4062.60791015625,14857,1,0.0,1757.0,1827.0,1709.0,1741.0,1756.0,1749.0,1746.0,-129.55538940429688,-9.393746376037598,-33.037086486816406,Left
4054.60791015625,14858,1,0.0,1736.0,1946.0,1783.0,1722.0,1773.0,1747.0,1741.0,-129.55538940429688,-9.393746376037598,-33.037086486816406,Left
4056.60791015625,14858,1,0.0,1745.0,2206.0,1844.0,1726.0,1759.0,1749.0,1746.0,-129.55538940429688,-9.393746376037598,-33.037086486816406,Left
4058.60791015625,14858,1,0.0,1749.0,2201.0,1871.0,1766.0,1723.0,1747.0,1741.0,-129.55538940429688,-9.393746376037598,-33.037086486816406,Left
4060.60791015625,14858,1,340.0,1747.0,2087.0,1907.0,1751.0,1763.0,1749.0,1742.0,-129.55538940429688,-9.393746376037598,-33.037086486816406,Left
4062.60791015625,14858,1,2245.0,1741.0,1962.0,1907.0,1751.0,1757.0,1752.0,1743.0,-129.55538940429688,-9.393746376037598,-33.037086486816406,Left
4054.60791015625,14859,1,1233.0,1711.0,1847.0,1907.0,1703.0,1709.0,1751.0,1747.0,-129.55538940429688,-9.393746376037598,-33.037086486816406,Left
4056.60791015625,14859,1,0.0,1745.0,1707.0,1853.0,1711.0,1727.0,1753.0,1743.0,-129.55538940429688,-9.393746376037598,-33.037086486816406,Left
4058.60791015625,14859,1,0.0,1773.0,1515.0,1835.0,1769.0,1754.0,1751.0,1747.0,-129.55538940429688,-9.393746376037598,-33.037086486816406,Left
4060.60791015625,14859,1,0.0,1773.0,1460.0,1727.0,1763.0,1763.0,1753.0,1745.0,-129.55538940429688,-9.393746376037598,-33.037086486816406,Left
4062.60791015625,14859,1,0.0,1787.0,1479.0,1659.0,1755.0,1764.0,1753.0,1743.0,-129.55538940429688,-9.393746376037598,-33.037086486816406,Left
4054.60791015625,14860,1,0.0,1754.0,1655.0,1681.0,1721.0,1755.0,1751.0,1747.0,-129.55538940429688,-9.393746376037598,-33.037086486816406,Left
4056.60791015625,14860,1,0.0,1747.0,1873.0,1785.0,1721.0,1725.0,1753.0,1745.0,-129.55538940429688,-9.393746376037598,-33.037086486816406,Left
4058.60791015625,14860,1,3817.0,1759.0,1944.0,1883.0,1748.0,1747.0,1753.0,1747.0,-129.55538940429688,-9.393746376037598,-33.037086486816406,Left
4060.60791015625,14860,1,3813.0,1757.0,1983.0,1810.0,1743.0,1758.0,1753.0,1747.0,-129.55538940429688,-9.393746376037598,-33.037086486816406,Left
4062.60791015625,14860,1,3817.0,1780.0,2122.0,1851.0,1750.0,1754.0,1754.0,1746.0,-129.55538940429688,-9.393746376037598,-33.037086486816406,Left
4074.214599609375,14861,1,3823.0,1780.0,1948.0,1877.0,1791.0,1745.0,1749.0,1737.0,-129.55538940429688,-9.393746376037598,-33.037086486816406,Left
4076.214599609375,14861,1,2841.0,1761.0,1865.0,1836.0,1783.0,1752.0,1755.0,1747.0,-122.6535873413086,-8.02878189086914,-30.61666488647461,Left
4078.214599609375,14861,1,0.0,1736.0,1716.0,1787.0,1741.0,1755.0,1755.0,1747.0,-122.6535873413086,-8.02878189086914,-30.61666488647461,Left
4080.214599609375,14861,1,0.0,1755.0,1621.0,1726.0,1755.0,1758.0,1753.0,1743.0,-122.6535873413086,-8.02878189086914,-30.61666488647461,Left
4082.214599609375,14861,1,0.0,1751.0,1543.0,1691.0,1745.0,1771.0,1753.0,1746.0,-122.6535873413086,-8.02878189086914,-30.61666488647461,Left
4086.47412109375,14862,1,0.0,1715.0,1659.0,1711.0,1735.0,1745.0,1756.0,1745.0,-122.6535873413086,-8.02878189086914,-30.61666488647461,Left
4088.47412109375,14862,1,0.0,1741.0,1959.0,1868.0,1692.0,1727.0,1754.0,1737.0,-122.6535873413086,-8.02878189086914,-30.61666488647461,Left
4090.47412109375,14862,1,3816.0,1752.0,2071.0,1893.0,1735.0,1743.0,1752.0,2933.0,-122.6535873413086,-8.02878189086914,-30.61666488647461,Left
4092.47412109375,14862,1,3812.0,1742.0,2081.0,1897.0,1724.0,1757.0,1753.0,3800.0,-122.6535873413086,-8.02878189086914,-30.61666488647461,Left
4094.47412109375,14862,1,3815.0,1779.0,1823.0,1819.0,1790.0,1769.0,1755.0,3797.0,-122.6535873413086,-8.02878189086914,-30.61666488647461,Left
4086.47412109375,14863,1,3815.0,1775.0,1695.0,1749.0,1798.0,1764.0,1753.0,3795.0,-122.6535873413086,-8.02878189086914,-30.61666488647461,Left
4088.47412109375,14863,1,3827.0,1717.0,1577.0,1748.0,1759.0,1748.0,1753.0,3793.0,-122.6535873413086,-8.02878189086914,-30.61666488647461,Left
4090.47412109375,14863,1,0.0,1699.0,1553.0,1661.0,1737.0,1721.0,1753.0,3795.0,-122.6535873413086,-8.02878189086914,-30.61666488647461,Left
4092.47412109375,14863,1,0.0,1743.0,1227.0,1547.0,1755.0,1749.0,1756.0,3794.0,-122.6535873413086,-8.02878189086914,-30.61666488647461,Left
4094.47412109375,14863,1,0.0,1735.0,1287.0,1542.0,1747.0,1702.0,1755.0,3795.0,-122.6535873413086,-8.02878189086914,-30.61666488647461,Left
4118.99560546875,14864,1,0.0,1770.0,1575.0,1672.0,1743.0,1740.0,1752.0,3795.0,-122.6535873413086,-8.02878189086914,-30.61666488647461,Left
4120.99560546875,14864,1,0.0,1803.0,1812.0,1764.0,1743.0,1752.0,1753.0,3797.0,-122.6535873413086,-8.02878189086914,-30.61666488647461,Left
4122.99560546875,14864,1,3813.0,1787.0,1945.0,1835.0,1723.0,1763.0,1752.0,3791.0,-122.6535873413086,-8.02878189086914,-30.61666488647461,Left
4124.99560546875,14864,1,3812.0,1765.0,1917.0,1845.0,1742.0,1751.0,1756.0,3800.0,-122.6535873413086,-8.02878189086914,-30.61666488647461,Left
4126.99560546875,14864,1,3821.0,1787.0,1900.0,1845.0,1756.0,1754.0,1753.0,3797.0,-122.6535873413086,-8.02878189086914,-30.61666488647461,Left
4118.99560546875,14865,1,3812.0,1779.0,1943.0,1771.0,1746.0,1751.0,1755.0,3795.0,-122.6535873413086,-8.02878189086914,-30.61666488647461,Left
4120.99560546875,14865,1,3821.0,1780.0,1767.0,1709.0,1767.0,1745.0,1756.0,3795.0,-122.6535873413086,-8.02878189086914,-30.61666488647461,Left
4122.99560546875,14865,1,0.0,1763.0,1830.0,1629.0,1739.0,1751.0,1755.0,3795.0,-122.6535873413086,-8.02878189086914,-30.61666488647461,Left
4124.99560546875,14865,1,0.0,1775.0,1619.0,1567.0,1757.0,1754.0,1755.0,3797.0,-122.6535873413086,-8.02878189086914,-30.61666488647461,Left
4126.99560546875,14865,1,0.0,1752.0,1606.0,1503.0,1715.0,1739.0,1755.0,3597.0,-122.6535873413086,-8.02878189086914,-30.61666488647461,Left
4118.99560546875,14866,1,0.0,1751.0,1799.0,1563.0,1727.0,1751.0,1756.0,3133.0,-122.6535873413086,-8.02878189086914,-30.61666488647461,Left
4120.99560546875,14866,1,0.0,1763.0,1864.0,1672.0,1740.0,1775.0,1755.0,2823.0,-122.6535873413086,-8.02878189086914,-30.61666488647461,Left
4122.99560546875,14866,1,3813.0,1779.0,1818.0,1767.0,1745.0,1751.0,1757.0,2579.0,-122.6535873413086,-8.02878189086914,-30.61666488647461,Left
4124.99560546875,14866,1,3812.0,1771.0,1554.0,1863.0,1757.0,1753.0,1756.0,2445.0,-122.6535873413086,-8.02878189086914,-30.61666488647461,Left
4126.99560546875,14866,1,3817.0,1763.0,1705.0,1851.0,1773.0,1763.0,1755.0,2268.0,-122.6535873413086,-8.02878189086914,-30.61666488647461,Left
4136.93896484375,14867,1,3813.0,1767.0,1749.0,1833.0,1763.0,1756.0,1753.0,2185.0,-122.6535873413086,-8.02878189086914,-30.61666488647461,Left
4138.93896484375,14867,1,3829.0,1773.0,1751.0,1800.0,1779.0,1733.0,1757.0,2031.0,-122.6535873413086,-8.02878189086914,-30.61666488647461,Left
4140.93896484375,14867,1,0.0,1757.0,1715.0,1845.0,1759.0,1743.0,1753.0,1916.0,-122.6535873413086,-8.02878189086914,-30.61666488647461,Left
4142.93896484375,14867,1,0.0,1763.0,1735.0,1725.0,1763.0,1753.0,1753.0,1811.0,-122.6535873413086,-8.02878189086914,-30.61666488647461,Left
4144.93896484375,14867,1,0.0,1769.0,1694.0,1548.0,1780.0,1758.0,1755.0,1779.0,-122.6535873413086,-8.02878189086914,-30.61666488647461,Left
4167.1298828125,14868,1,0.0,1755.0,2006.0,1516.0,1747.0,1741.0,3816.0,1683.0,-123.02327728271484,-7.550790309906006,-30.56610107421875,Left
4169.1298828125,14868,1,0.0,1755.0,2249.0,1703.0,1737.0,1747.0,3819.0,1582.0,-123.02327728271484,-7.550790309906006,-30.56610107421875,Left
4171.1298828125,14868,1,3812.0,1775.0,2291.0,1828.0,1741.0,1740.0,3821.0,1598.0,-123.02327728271484,-7.550790309906006,-30.56610107421875,Left
4173.1298828125,14868,1,3815.0,1753.0,2121.0,1828.0,1740.0,1747.0,3817.0,1562.0,-123.02327728271484,-7.550790309906006,-30.56610107421875,Left
4175.1298828125,14868,1,3818.0,1763.0,1915.0,1846.0,1772.0,1775.0,3821.0,1566.0,-123.02327728271484,-7.550790309906006,-30.56610107421875,Left
4167.1298828125,14869,1,3814.0,1739.0,1627.0,1803.0,1755.0,1741.0,3823.0,1543.0,-123.02327728271484,-7.550790309906006,-30.56610107421875,Left
4169.1298828125,14869,1,3827.0,1751.0,1497.0,1823.0,1741.0,1747.0,3835.0,1477.0,-123.02327728271484,-7.550790309906006,-30.56610107421875,Left
4171.1298828125,14869,1,0.0,1771.0,1695.0,1853.0,1749.0,1763.0,3827.0,1499.0,-123.02327728271484,-7.550790309906006,-30.56610107421875,Left
4173.1298828125,14869,1,0.0,1765.0,1532.0,1791.0,1741.0,1743.0,3821.0,1564.0,-123.02327728271484,-7.550790309906006,-30.56610107421875,Left
4175.1298828125,14869,1,0.0,1758.0,1493.0,1704.0,1742.0,1747.0,3821.0,1477.0,-123.02327728271484,-7.550790309906006,-30.56610107421875,Left
4167.1298828125,14870,1,0.0,1733.0,1861.0,1749.0,1723.0,1763.0,3821.0,1510.0,-123.02327728271484,-7.550790309906006,-30.56610107421875,Left
4169.1298828125,14870,1,0.0,1737.0,1891.0,1726.0,1719.0,1756.0,3827.0,1396.0,-123.02327728271484,-7.550790309906006,-30.56610107421875,Left
4171.1298828125,14870,1,3814.0,1754.0,2091.0,1797.0,1752.0,1763.0,3823.0,1434.0,-123.02327728271484,-7.550790309906006,-30.56610107421875,Left
4173.1298828125,14870,1,3816.0,1752.0,1721.0,1764.0,1747.0,1770.0,3831.0,1477.0,-123.02327728271484,-7.550790309906006,-30.56610107421875,Left
4175.1298828125,14870,1,3811.0,1779.0,1754.0,1763.0,1759.0,1751.0,3829.0,1567.0,-123.02327728271484,-7.550790309906006,-30.56610107421875,Left
4167.1298828125,14871,1,3817.0,1767.0,1689.0,1786.0,1711.0,1759.0,3829.0,1643.0,-123.02327728271484,-7.550790309906006,-30.56610107421875,Left
4169.1298828125,14871,1,3819.0,1742.0,1634.0,1737.0,1709.0,1711.0,3822.0,1643.0,-123.02327728271484,-7.550790309906006,-30.56610107421875,Left
4171.1298828125,14871,1,0.0,1737.0,1631.0,1717.0,1709.0,1739.0,3813.0,1702.0,-123.02327728271484,-7.550790309906006,-30.56610107421875,Left
4173.1298828125,14871,1,0.0,1762.0,1645.0,1614.0,1773.0,1759.0,3832.0,1774.0,-123.02327728271484,-7.550790309906006,-30.56610107421875,Left
4175.1298828125,14871,1,0.0,1747.0,1519.0,1595.0,1759.0,1743.0,3281.0,1771.0,-123.02327728271484,-7.550790309906006,-30.56610107421875,Left
4183.29541015625,14872,1,0.0,1739.0,1589.0,1627.0,1754.0,1750.0,2919.0,1701.0,-123.02327728271484,-7.550790309906006,-30.56610107421875,Left
4185.29541015625,14872,1,0.0,1735.0,1751.0,1689.0,1718.0,1751.0,2708.0,1741.0,-123.02327728271484,-7.550790309906006,-30.56610107421875,Left
4187.29541015625,14872,1,3813.0,1753.0,1774.0,1871.0,1695.0,1767.0,2525.0,1855.0,-123.02327728271484,-7.550790309906006,-30.56610107421875,Left
4189.29541015625,14872,1,3813.0,1753.0,1805.0,1895.0,1661.0,1763.0,2393.0,1897.0,-123.02327728271484,-7.550790309906006,-30.56610107421875,Left
4191.29541015625,14872,1,3817.0,1781.0,1621.0,1920.0,1673.0,1722.0,2277.0,1989.0,-123.02327728271484,-7.550790309906006,-30.56610107421875,Left
4183.29541015625,14873,1,3820.0,1785.0,1575.0,1836.0,1701.0,1751.0,2159.0,1950.0,-123.02327728271484,-7.550790309906006,-30.56610107421875,Left
4185.29541015625,14873,1,3823.0,1771.0,1553.0,1764.0,1727.0,1725.0,2099.0,1940.0,-123.02327728271484,-7.550790309906006,-30.56610107421875,Left
4187.29541015625,14873,1,0.0,1757.0,1551.0,1646.0,1725.0,1753.0,2038.0,1827.0,-123.02327728271484,-7.550790309906006,-30.56610107421875,Left
4189.29541015625,14873,1,0.0,1753.0,1584.0,1564.0,1801.0,1765.0,1989.0,1748.0,-123.02327728271484,-7.550790309906006,-30.56610107421875,Left
4191.29541015625,14873,1,0.0,1759.0,1595.0,1553.0,1811.0,1765.0,1948.0,1763.0,-123.02327728271484,-7.550790309906006,-30.56610107421875,Left
4200.939453125,14874,1,0.0,1754.0,1899.0,1619.0,1813.0,1759.0,1914.0,1765.0,-123.02327728271484,-7.550790309906006,-30.56610107421875,Left
4202.939453125,14874,1,0.0,1761.0,2019.0,1683.0,1803.0,1738.0,1891.0,1735.0,-123.02327728271484,-7.550790309906006,-30.56610107421875,Left
4204.939453125,14874,1,3823.0,1751.0,2121.0,1775.0,1772.0,1741.0,1868.0,1740.0,-121.5792236328125,-7.330680847167969,-30.610258102416992,Left
4206.939453125,14874,1,3811.0,1749.0,1931.0,1895.0,1769.0,1757.0,1849.0,1749.0,-121.5792236328125,-7.330680847167969,-30.610258102416992,Left
4208.939453125,14874,1,3814.0,1743.0,2009.0,1935.0,1746.0,1749.0,1833.0,1823.0,-121.5792236328125,-7.330680847167969,-30.610258102416992,Left
4214.9326171875,14875,1,3800.0,1751.0,1637.0,1996.0,1747.0,1747.0,1815.0,1871.0,-121.5792236328125,-7.330680847167969,-30.610258102416992,Left
4216.9326171875,14875,1,3823.0,1757.0,1605.0,1968.0,1783.0,1756.0,1814.0,1895.0,-121.5792236328125,-7.330680847167969,-30.610258102416992,Left
4218.9326171875,14875,1,0.0,1773.0,1708.0,1945.0,1812.0,1739.0,1807.0,1770.0,-121.5792236328125,-7.330680847167969,-30.610258102416992,Left
4220.9326171875,14875,1,0.0,1788.0,1647.0,1839.0,1835.0,1757.0,1801.0,1703.0,-121.5792236328125,-7.330680847167969,-30.610258102416992,Left
4222.9326171875,14875,1,0.0,1755.0,1532.0,1813.0,1847.0,1752.0,1796.0,1639.0,-121.5792236328125,-7.330680847167969,-30.610258102416992,Left
4214.9326171875,14876,1,0.0,1757.0,1763.0,1806.0,1864.0,1747.0,1788.0,1593.0,-121.5792236328125,-7.330680847167969,-30.610258102416992,Left
4216.9326171875,14876,1,0.0,1783.0,1896.0,1799.0,1929.0,1752.0,1786.0,1583.0,-121.5792236328125,-7.330680847167969,-30.610258102416992,Left
4218.9326171875,14876,1,3220.0,1771.0,2151.0,1849.0,1879.0,1751.0,1784.0,1571.0,-121.5792236328125,-7.330680847167969,-30.610258102416992,Left
4220.9326171875,14876,1,3819.0,1781.0,1989.0,1839.0,1805.0,1753.0,1781.0,1673.0,-121.5792236328125,-7.330680847167969,-30.610258102416992,Left
4222.9326171875,14876,1,3823.0,1756.0,1947.0,1861.0,1753.0,1755.0,1779.0,1738.0,-121.5792236328125,-7.330680847167969,-30.610258102416992,Left
4235.73828125,14877,1,3815.0,1755.0,1707.0,1823.0,1703.0,1747.0,1759.0,1633.0,-121.5792236328125,-7.330680847167969,-30.610258102416992,Left
4237.73828125,14877,1,3817.0,1733.0,1727.0,1803.0,1674.0,1735.0,1775.0,1624.0,-121.5792236328125,-7.330680847167969,-30.610258102416992,Left
4239.73828125,14877,1,553.0,1723.0,1723.0,1739.0,1675.0,1749.0,1772.0,1621.0,-121.5792236328125,-7.330680847167969,-30.610258102416992,Left
4241.73828125,14877,1,0.0,1771.0,1699.0,1655.0,1707.0,1759.0,1770.0,1604.0,-121.5792236328125,-7.330680847167969,-30.610258102416992,Left
4243.73828125,14877,1,0.0,1783.0,1403.0,1613.0,1699.0,1763.0,1772.0,1581.0,-121.5792236328125,-7.330680847167969,-30.610258102416992,Left
4247.048828125,14878,1,0.0,1771.0,1382.0,1639.0,1671.0,1757.0,1771.0,1553.0,-121.5792236328125,-7.330680847167969,-30.610258102416992,Left
4249.048828125,14878,1,0.0,1757.0,1575.0,1695.0,1648.0,1769.0,1773.0,1543.0,-121.5792236328125,-7.330680847167969,-30.610258102416992,Left
4251.048828125,14878,1,2651.0,1773.0,1765.0,1727.0,1683.0,1745.0,1769.0,1483.0,-121.5792236328125,-7.330680847167969,-30.610258102416992,Left
4253.048828125,14878,1,3818.0,1739.0,1810.0,1734.0,1655.0,1719.0,1767.0,1529.0,-121.5792236328125,-7.330680847167969,-30.610258102416992,Left
4255.048828125,14878,1,3821.0,1709.0,1766.0,1775.0,1657.0,1701.0,1769.0,1571.0,-121.5792236328125,-7.330680847167969,-30.610258102416992,Left
4248.58935546875,14879,1,3817.0,1763.0,1644.0,1832.0,1724.0,1755.0,1753.0,1565.0,-121.5792236328125,-7.330680847167969,-30.610258102416992,Left
4250.58935546875,14879,1,3814.0,1804.0,1772.0,1914.0,1749.0,1765.0,1769.0,1579.0,-121.5792236328125,-7.330680847167969,-30.610258102416992,Left
4252.58935546875,14879,1,1596.0,1799.0,1736.0,1913.0,1751.0,1724.0,1769.0,1631.0,-121.5792236328125,-7.330680847167969,-30.610258102416992,Left
4254.58935546875,14879,1,0.0,1768.0,1719.0,1831.0,1727.0,1769.0,1768.0,1643.0,-121.5792236328125,-7.330680847167969,-30.610258102416992,Left
4256.58935546875,14879,1,0.0,1742.0,1464.0,1787.0,1745.0,1749.0,1765.0,1631.0,-121.5792236328125,-7.330680847167969,-30.610258102416992,Left
4297.3193359375,14880,1,0.0,1722.0,1701.0,1751.0,1691.0,1785.0,1765.0,1579.0,-121.5792236328125,-7.330680847167969,-30.610258102416992,Left
4299.3193359375,14880,1,0.0,1727.0,1885.0,1643.0,1711.0,1771.0,1767.0,1626.0,-121.5792236328125,-7.330680847167969,-30.610258102416992,Left
4301.3193359375,14880,1,1207.0,1755.0,2023.0,1821.0,1743.0,1766.0,1767.0,1525.0,-121.5792236328125,-7.330680847167969,-30.610258102416992,Left
4303.3193359375,14880,1,3811.0,1765.0,2133.0,1913.0,1757.0,1715.0,1766.0,1589.0,-121.5792236328125,-7.330680847167969,-30.610258102416992,Left
4305.3193359375,14880,1,3815.0,1813.0,2151.0,1946.0,1759.0,1735.0,1765.0,1695.0,-121.5792236328125,-7.330680847167969,-30.610258102416992,Left
4297.3193359375,14881,1,3819.0,1745.0,1992.0,1854.0,1703.0,1715.0,1767.0,1655.0,-120.06571197509766,-7.24727725982666,-30.75879669189453,Left
4299.3193359375,14881,1,3817.0,1767.0,1747.0,1801.0,1727.0,1785.0,1766.0,1711.0,-120.06571197509766,-7.24727725982666,-30.75879669189453,Left
4301.3193359375,14881,1,1876.0,1739.0,1447.0,1749.0,1768.0,1719.0,1764.0,1721.0,-120.06571197509766,-7.24727725982666,-30.75879669189453,Left
4303.3193359375,14881,1,0.0,1817.0,1490.0,1673.0,1813.0,1771.0,490.0,1706.0,-120.06571197509766,-7.24727725982666,-30.75879669189453,Left
4305.3193359375,14881,1,0.0,1799.0,1389.0,1655.0,1779.0,1757.0,0.0,1628.0,-120.06571197509766,-7.24727725982666,-30.75879669189453,Left
4297.3193359375,14882,1,0.0,1768.0,1463.0,1589.0,1753.0,1749.0,0.0,1583.0,-120.06571197509766,-7.24727725982666,-30.75879669189453,Left
4299.3193359375,14882,1,0.0,1765.0,1518.0,1611.0,1754.0,1759.0,0.0,1591.0,-120.06571197509766,-7.24727725982666,-30.75879669189453,Left
4301.3193359375,14882,1,214.0,1727.0,1781.0,1753.0,1705.0,1743.0,0.0,1578.0,-120.06571197509766,-7.24727725982666,-30.75879669189453,Left
4303.3193359375,14882,1,3815.0,1759.0,1897.0,1784.0,1710.0,1739.0,0.0,1591.0,-120.06571197509766,-7.24727725982666,-30.75879669189453,Left
4305.3193359375,14882,1,3823.0,1746.0,1939.0,1800.0,1747.0,1739.0,0.0,1608.0,-120.06571197509766,-7.24727725982666,-30.75879669189453,Left
4297.3193359375,14883,1,3817.0,1791.0,1885.0,1815.0,1773.0,1749.0,0.0,1669.0,-120.06571197509766,-7.24727725982666,-30.75879669189453,Left
4299.3193359375,14883,1,3820.0,1779.0,1884.0,1821.0,1755.0,1737.0,0.0,1653.0,-120.06571197509766,-7.24727725982666,-30.75879669189453,Left
4301.3193359375,14883,1,2697.0,1758.0,1719.0,1773.0,1753.0,1768.0,0.0,1563.0,-120.06571197509766,-7.24727725982666,-30.75879669189453,Left
4303.3193359375,14883,1,0.0,1753.0,1689.0,1700.0,1746.0,1763.0,0.0,1530.0,-120.06571197509766,-7.24727725982666,-30.75879669189453,Left
4305.3193359375,14883,1,0.0,1739.0,1610.0,1687.0,1747.0,1741.0,0.0,1527.0,-120.06571197509766,-7.24727725982666,-30.75879669189453,Left
4297.3193359375,14884,1,0.0,1727.0,1594.0,1647.0,1691.0,1727.0,6.0,1500.0,-120.06571197509766,-7.24727725982666,-30.75879669189453,Left
4299.3193359375,14884,1,0.0,1774.0,1668.0,1652.0,1703.0,1739.0,268.0,1483.0,-120.06571197509766,-7.24727725982666,-30.75879669189453,Left
4301.3193359375,14884,1,0.0,1791.0,1891.0,1773.0,1723.0,1763.0,507.0,1541.0,-120.06571197509766,-7.24727725982666,-30.75879669189453,Left
4303.3193359375,14884,1,3799.0,1783.0,1967.0,1746.0,1722.0,1750.0,678.0,1683.0,-120.06571197509766,-7.24727725982666,-30.75879669189453,Left
4305.3193359375,14884,1,3819.0,1786.0,1803.0,1765.0,1747.0,1758.0,853.0,1821.0,-120.06571197509766,-7.24727725982666,-30.75879669189453,Left
4312.82958984375,14885,1,3818.0,1798.0,1765.0,1693.0,1774.0,1759.0,983.0,1737.0,-120.06571197509766,-7.24727725982666,-30.75879669189453,Left
4314.82958984375,14885,1,3815.0,1763.0,1698.0,1677.0,1725.0,1753.0,1071.0,1723.0,-120.06571197509766,-7.24727725982666,-30.75879669189453,Left
4316.82958984375,14885,1,3093.0,1751.0,1362.0,1704.0,1725.0,1737.0,1160.0,1663.0,-120.06571197509766,-7.24727725982666,-30.75879669189453,Left
4318.82958984375,14885,1,0.0,1755.0,1383.0,1675.0,1727.0,1739.0,1230.0,1646.0,-120.06571197509766,-7.24727725982666,-30.75879669189453,Left
4320.82958984375,14885,1,0.0,1750.0,1369.0,1683.0,1719.0,1741.0,1323.0,1662.0,-120.06571197509766,-7.24727725982666,-30.75879669189453,Left
4327.35302734375,14886,1,0.0,1711.0,1752.0,1655.0,1696.0,1763.0,1383.0,1615.0,-120.06571197509766,-7.24727725982666,-30.75879669189453,Left
4329.35302734375,14886,1,0.0,1747.0,1780.0,1722.0,1718.0,1749.0,1439.0,1643.0,-120.06571197509766,-7.24727725982666,-30.75879669189453,Left
4331.35302734375,14886,1,0.0,1738.0,1961.0,1767.0,1695.0,1751.0,1483.0,1635.0,-120.06571197509766,-7.24727725982666,-30.75879669189453,Left
4333.35302734375,14886,1,3815.0,1718.0,2118.0,1784.0,1735.0,1741.0,1507.0,1741.0,-120.06571197509766,-7.24727725982666,-30.75879669189453,Left
4335.35302734375,14886,1,3818.0,1721.0,2141.0,1838.0,1763.0,1753.0,1541.0,1733.0,-120.06571197509766,-7.24727725982666,-30.75879669189453,Left
4327.35302734375,14887,1,3813.0,1753.0,1850.0,1867.0,1819.0,1757.0,1566.0,1805.0,-120.06571197509766,-7.24727725982666,-30.75879669189453,Left
4329.35302734375,14887,1,3827.0,1735.0,1783.0,1926.0,1804.0,1749.0,1572.0,1812.0,-120.06571197509766,-7.24727725982666,-30.75879669189453,Left
4331.35302734375,14887,1,3829.0,1765.0,1512.0,1839.0,1815.0,1747.0,1623.0,1782.0,-117.92646789550781,-6.982499599456787,-30.723405838012695,Left
4333.35302734375,14887,1,0.0,1767.0,1655.0,1842.0,1805.0,1751.0,1623.0,1839.0,-117.92646789550781,-6.982499599456787,-30.723405838012695,Left
4335.35302734375,14887,1,0.0,1753.0,1547.0,1791.0,1791.0,1762.0,1633.0,1883.0,-117.92646789550781,-6.982499599456787,-30.723405838012695,Left
4347.9423828125,14888,1,0.0,1752.0,1656.0,1756.0,1759.0,1747.0,1647.0,1901.0,-117.92646789550781,-6.982499599456787,-30.723405838012695,Left
4349.9423828125,14888,1,0.0,1747.0,1948.0,1724.0,1745.0,1767.0,1651.0,1855.0,-117.92646789550781,-6.982499599456787,-30.723405838012695,Left
4351.9423828125,14888,1,0.0,1741.0,2020.0,1721.0,1707.0,1755.0,1681.0,1751.0,-117.92646789550781,-6.982499599456787,-30.723405838012695,Left
4353.9423828125,14888,1,3816.0,1757.0,1903.0,1845.0,1737.0,1757.0,1692.0,1818.0,-117.92646789550781,-6.982499599456787,-30.723405838012695,Left
4355.9423828125,14888,1,3815.0,1755.0,2143.0,1799.0,1682.0,1771.0,1709.0,1837.0,-117.92646789550781,-6.982499599456787,-30.723405838012695,Left
4347.9423828125,14889,1,3820.0,1749.0,1977.0,1773.0,1702.0,1753.0,1681.0,1831.0,-117.92646789550781,-6.982499599456787,-30.723405838012695,Left
4349.9423828125,14889,1,3819.0,1721.0,1829.0,1831.0,1614.0,1714.0,1645.0,1975.0,-117.92646789550781,-6.982499599456787,-30.723405838012695,Left
4351.9423828125,14889,1,3834.0,1775.0,1700.0,1805.0,1557.0,1725.0,1687.0,1896.0,-117.92646789550781,-6.982499599456787,-30.723405838012695,Left
4353.9423828125,14889,1,0.0,1772.0,1753.0,1765.0,1594.0,1755.0,1717.0,1883.0,-117.92646789550781,-6.982499599456787,-30.723405838012695,Left
4355.9423828125,14889,1,0.0,1762.0,1677.0,1645.0,1624.0,1763.0,1712.0,1875.0,-117.92646789550781,-6.982499599456787,-30.723405838012695,Left
4363.9482421875,14890,1,0.0,1755.0,1520.0,1633.0,1679.0,1756.0,1721.0,1659.0,-117.92646789550781,-6.982499599456787,-30.723405838012695,Left
4365.9482421875,14890,1,0.0,1737.0,1705.0,1623.0,1669.0,1759.0,1715.0,1643.0,-117.92646789550781,-6.982499599456787,-30.723405838012695,Left
4367.9482421875,14890,1,0.0,1745.0,2087.0,1763.0,1767.0,1740.0,1717.0,1587.0,-117.92646789550781,-6.982499599456787,-30.723405838012695,Left
4369.9482421875,14890,1,3812.0,1725.0,1958.0,1831.0,1747.0,1741.0,1692.0,1573.0,-117.92646789550781,-6.982499599456787,-30.723405838012695,Left
4371.9482421875,14890,1,3830.0,1783.0,1782.0,1807.0,1773.0,1752.0,1752.0,1518.0,-117.92646789550781,-6.982499599456787,-30.723405838012695,Left
4363.9482421875,14891,1,3817.0,1774.0,1577.0,1891.0,1749.0,1739.0,1711.0,1461.0,-117.92646789550781,-6.982499599456787,-30.723405838012695,Left
4365.9482421875,14891,1,3815.0,1765.0,1682.0,1803.0,1749.0,1734.0,1709.0,1515.0,-117.92646789550781,-6.982499599456787,-30.723405838012695,Left
4367.9482421875,14891,1,3823.0,1757.0,1681.0,1848.0,1815.0,1755.0,1747.0,1527.0,-117.92646789550781,-6.982499599456787,-30.723405838012695,Left
4369.9482421875,14891,1,0.0,1775.0,1607.0,1821.0,1831.0,1764.0,1725.0,1739.0,-117.92646789550781,-6.982499599456787,-30.723405838012695,Left
4371.9482421875,14891,1,0.0,1753.0,1573.0,1709.0,1821.0,1755.0,1738.0,1805.0,-117.92646789550781,-6.982499599456787,-30.723405838012695,Left
4396.275390625,14892,1,0.0,1738.0,1487.0,1653.0,1797.0,1747.0,1718.0,1895.0,-117.92646789550781,-6.982499599456787,-30.723405838012695,Left
4398.275390625,14892,1,0.0,1742.0,1599.0,1673.0,1780.0,1748.0,1719.0,1885.0,-117.92646789550781,-6.982499599456787,-30.723405838012695,Left
4400.275390625,14892,1,0.0,1801.0,1828.0,1685.0,1797.0,1763.0,1764.0,1863.0,-117.92646789550781,-6.982499599456787,-30.723405838012695,Left
4402.275390625,14892,1,3819.0,1790.0,1884.0,1715.0,1812.0,1756.0,1767.0,1966.0,-117.92646789550781,-6.982499599456787,-30.723405838012695,Left
4404.275390625,14892,1,3809.0,1767.0,1982.0,1675.0,1817.0,1765.0,1752.0,2059.0,-117.92646789550781,-6.982499599456787,-30.723405838012695,Left
4396.275390625,14893,1,3815.0,1763.0,1868.0,1709.0,1823.0,1754.0,1724.0,1929.0,-117.92646789550781,-6.982499599456787,-30.723405838012695,Left
4398.275390625,14893,1,3819.0,1775.0,1947.0,1691.0,1811.0,1757.0,1717.0,1767.0,-117.92646789550781,-6.982499599456787,-30.723405838012695,Left
4400.275390625,14893,1,3822.0,1749.0,1913.0,1739.0,1765.0,1725.0,1719.0,1693.0,-117.92646789550781,-6.982499599456787,-30.723405838012695,Left
4402.275390625,14893,1,0.0,1757.0,1927.0,1739.0,1775.0,1757.0,1749.0,1579.0,-117.92646789550781,-6.982499599456787,-30.723405838012695,Left
4404.275390625,14893,1,0.0,1767.0,1811.0,1659.0,1797.0,1756.0,1728.0,1543.0,-117.92646789550781,-6.982499599456787,-30.723405838012695,Left
4396.275390625,14894,1,0.0,1757.0,1624.0,1661.0,1765.0,1762.0,1735.0,1479.0,-117.5221176147461,-7.193618297576904,-31.070722579956055,Left
4398.275390625,14894,1,0.0,1775.0,1629.0,1663.0,1762.0,1766.0,1765.0,1341.0,-117.5221176147461,-7.193618297576904,-31.070722579956055,Left
4400.275390625,14894,1,0.0,1767.0,1817.0,1722.0,1758.0,1754.0,1749.0,1436.0,-117.5221176147461,-7.193618297576904,-31.070722579956055,Left
4402.275390625,14894,1,3827.0,1759.0,1839.0,1747.0,1767.0,1735.0,1726.0,1509.0,-117.5221176147461,-7.193618297576904,-31.070722579956055,Left
4404.275390625,14894,1,3816.0,1739.0,1930.0,1845.0,1769.0,1725.0,1739.0,1599.0,-117.5221176147461,-7.193618297576904,-31.070722579956055,Left
4408.2861328125,14895,1,3819.0,1752.0,1835.0,1875.0,1839.0,1753.0,1766.0,1575.0,-117.5221176147461,-7.193618297576904,-31.070722579956055,Left
4410.2861328125,14895,1,3815.0,1773.0,1927.0,1851.0,1837.0,1757.0,1759.0,1583.0,-117.5221176147461,-7.193618297576904,-31.070722579956055,Left
4412.2861328125,14895,1,3828.0,1753.0,1848.0,1854.0,1813.0,1749.0,1749.0,1579.0,-117.5221176147461,-7.193618297576904,-31.070722579956055,Left
4414.2861328125,14895,1,0.0,1756.0,1656.0,1885.0,1803.0,1739.0,1720.0,1623.0,-117.5221176147461,-7.193618297576904,-31.070722579956055,Left
4416.2861328125,14895,1,0.0,1755.0,1598.0,1834.0,1773.0,1721.0,1734.0,1507.0,-117.5221176147461,-7.193618297576904,-31.070722579956055,Left
4425.7099609375,14896,1,0.0,1767.0,1689.0,1743.0,1751.0,1747.0,1747.0,1470.0,-117.5221176147461,-7.193618297576904,-31.070722579956055,Left
4427.7099609375,14896,1,0.0,1765.0,1625.0,1751.0,1752.0,1749.0,1747.0,1469.0,-117.5221176147461,-7.193618297576904,-31.070722579956055,Left
4429.7099609375,14896,1,0.0,1775.0,1707.0,1839.0,1755.0,1749.0,1749.0,1493.0,-117.5221176147461,-7.193618297576904,-31.070722579956055,Left
4431.7099609375,14896,1,3823.0,1771.0,1780.0,1934.0,1767.0,1751.0,1751.0,1461.0,-117.5221176147461,-7.193618297576904,-31.070722579956055,Left
4433.7099609375,14896,1,3823.0,1752.0,1875.0,1901.0,1755.0,1753.0,1741.0,1467.0,-117.5221176147461,-7.193618297576904,-31.070722579956055,Left
4427.95751953125,14897,1,3813.0,1747.0,1830.0,1925.0,1747.0,1743.0,1756.0,1464.0,-117.5221176147461,-7.193618297576904,-31.070722579956055,Left
4429.95751953125,14897,1,3817.0,1773.0,1774.0,1885.0,1763.0,1756.0,1771.0,1481.0,-117.5221176147461,-7.193618297576904,-31.070722579956055,Left
4431.95751953125,14897,1,3823.0,1755.0,1711.0,1848.0,1763.0,1747.0,1738.0,1497.0,-117.5221176147461,-7.193618297576904,-31.070722579956055,Left
4433.95751953125,14897,1,317.0,1741.0,1659.0,1823.0,1755.0,1736.0,1739.0,1476.0,-117.5221176147461,-7.193618297576904,-31.070722579956055,Left
4435.95751953125,14897,1,0.0,1748.0,1567.0,1811.0,1773.0,1740.0,1727.0,1371.0,-117.5221176147461,-7.193618297576904,-31.070722579956055,Left
4442.2470703125,14898,1,0.0,1763.0,1487.0,1737.0,1750.0,1726.0,1770.0,1327.0,-117.5221176147461,-7.193618297576904,-31.070722579956055,Left
4444.2470703125,14898,1,0.0,1753.0,1703.0,1658.0,1716.0,1747.0,1745.0,1384.0,-117.5221176147461,-7.193618297576904,-31.070722579956055,Left
4446.2470703125,14898,1,0.0,1769.0,1691.0,1655.0,1711.0,1749.0,1749.0,1481.0,-117.5221176147461,-7.193618297576904,-31.070722579956055,Left
4448.2470703125,14898,1,3815.0,1765.0,2028.0,1851.0,1723.0,1747.0,1747.0,1547.0,-117.5221176147461,-7.193618297576904,-31.070722579956055,Left
4450.2470703125,14898,1,3813.0,1763.0,1996.0,1939.0,1741.0,1762.0,1757.0,1625.0,-117.5221176147461,-7.193618297576904,-31.070722579956055,Left
4456.6982421875,14899,1,3815.0,1749.0,2007.0,1861.0,1749.0,1756.0,1742.0,1674.0,-117.5221176147461,-7.193618297576904,-31.070722579956055,Left
4458.6982421875,14899,1,3799.0,1753.0,2025.0,1801.0,1706.0,1748.0,1741.0,1708.0,-117.5221176147461,-7.193618297576904,-31.070722579956055,Left
4460.6982421875,14899,1,3822.0,1752.0,1891.0,1719.0,1724.0,1735.0,1742.0,1647.0,-117.5221176147461,-7.193618297576904,-31.070722579956055,Left
4462.6982421875,14899,1,937.0,1767.0,1711.0,1681.0,1726.0,1749.0,1747.0,1626.0,-117.5221176147461,-7.193618297576904,-31.070722579956055,Left
4464.6982421875,14899,1,0.0,1753.0,1692.0,1635.0,1739.0,1752.0,1764.0,1577.0,-117.5221176147461,-7.193618297576904,-31.070722579956055,Left
4456.6982421875,14900,1,0.0,1784.0,1437.0,1587.0,1751.0,1758.0,1779.0,1492.0,-117.5221176147461,-7.193618297576904,-31.070722579956055,Left
4458.6982421875,14900,1,0.0,1747.0,1613.0,1649.0,1723.0,1723.0,1717.0,1531.0,-117.5221176147461,-7.193618297576904,-31.070722579956055,Left
4460.6982421875,14900,1,0.0,1767.0,1869.0,1763.0,1715.0,1763.0,1788.0,1595.0,-117.49954986572266,-7.167697906494141,-31.38055992126465,Left
4462.6982421875,14900,1,3815.0,1789.0,2063.0,1719.0,1742.0,1756.0,1758.0,1689.0,-117.49954986572266,-7.167697906494141,-31.38055992126465,Left
4464.6982421875,14900,1,3815.0,1750.0,1949.0,1705.0,1755.0,1746.0,1735.0,1805.0,-117.49954986572266,-7.167697906494141,-31.38055992126465,Left
4474.2744140625,14901,1,3819.0,1757.0,1891.0,1769.0,1763.0,1746.0,1749.0,1818.0,-117.49954986572266,-7.167697906494141,-31.38055992126465,Left
4476.2744140625,14901,1,3828.0,1768.0,1800.0,1717.0,1765.0,1768.0,1769.0,1701.0,-117.49954986572266,-7.167697906494141,-31.38055992126465,Left
4478.2744140625,14901,1,3816.0,1766.0,1748.0,1676.0,1781.0,1737.0,1752.0,1627.0,-117.49954986572266,-7.167697906494141,-31.38055992126465,Left
4480.2744140625,14901,1,1177.0,1763.0,1499.0,1587.0,1758.0,1741.0,1737.0,1645.0,-117.49954986572266,-7.167697906494141,-31.38055992126465,Left
4482.2744140625,14901,1,0.0,1762.0,1463.0,1655.0,1771.0,1741.0,1755.0,1723.0,-117.49954986572266,-7.167697906494141,-31.38055992126465,Left
4474.2744140625,14902,1,0.0,1773.0,1540.0,1613.0,1762.0,1749.0,1711.0,1861.0,-117.49954986572266,-7.167697906494141,-31.38055992126465,Left
4476.2744140625,14902,1,0.0,1747.0,1907.0,1683.0,1737.0,1753.0,1773.0,1911.0,-117.49954986572266,-7.167697906494141,-31.38055992126465,Left
4478.2744140625,14902,1,0.0,1775.0,2123.0,1833.0,1748.0,1742.0,1746.0,1895.0,-117.49954986572266,-7.167697906494141,-31.38055992126465,Left
4480.2744140625,14902,1,3013.0,1758.0,2187.0,1972.0,1747.0,1756.0,1767.0,2027.0,-117.49954986572266,-7.167697906494141,-31.38055992126465,Left
4482.2744140625,14902,1,3815.0,1771.0,2079.0,1988.0,1743.0,1753.0,1741.0,1981.0,-117.49954986572266,-7.167697906494141,-31.38055992126465,Left
4492.974609375,14903,1,3817.0,1757.0,1957.0,1927.0,1756.0,1746.0,1781.0,1949.0,-117.49954986572266,-7.167697906494141,-31.38055992126465,Left
4494.974609375,14903,1,3815.0,1771.0,1867.0,1891.0,1765.0,1757.0,1785.0,1881.0,-117.49954986572266,-7.167697906494141,-31.38055992126465,Left
4496.974609375,14903,1,3820.0,1759.0,1727.0,1788.0,1765.0,1755.0,1751.0,1869.0,-117.49954986572266,-7.167697906494141,-31.38055992126465,Left
4498.974609375,14903,1,1845.0,1743.0,1710.0,1783.0,1749.0,1752.0,1749.0,1769.0,-117.49954986572266,-7.167697906494141,-31.38055992126465,Left
4500.974609375,14903,1,0.0,1756.0,1562.0,1715.0,1765.0,1738.0,1738.0,1787.0,-117.49954986572266,-7.167697906494141,-31.38055992126465,Left
4553.462890625,14904,1,0.0,1774.0,1254.0,1628.0,1747.0,1753.0,1755.0,1703.0,-117.49954986572266,-7.167697906494141,-31.38055992126465,Left
4555.462890625,14904,1,0.0,1765.0,1401.0,1647.0,1724.0,1747.0,1764.0,1725.0,-117.49954986572266,-7.167697906494141,-31.38055992126465,Left
4557.462890625,14904,1,0.0,1745.0,1715.0,1627.0,1705.0,1752.0,1751.0,1751.0,-117.49954986572266,-7.167697906494141,-31.38055992126465,Left
4559.462890625,14904,1,2131.0,1761.0,1848.0,1756.0,1741.0,1750.0,1748.0,1803.0,-117.49954986572266,-7.167697906494141,-31.38055992126465,Left
4561.462890625,14904,1,3813.0,1755.0,1973.0,1790.0,1745.0,1737.0,1725.0,1817.0,-117.49954986572266,-7.167697906494141,-31.38055992126465,Left
4553.462890625,14905,1,3813.0,1741.0,1852.0,1831.0,1736.0,1759.0,1767.0,1869.0,-117.49954986572266,-7.167697906494141,-31.38055992126465,Left
4555.462890625,14905,1,3814.0,1764.0,1909.0,1830.0,1752.0,1749.0,1757.0,1819.0,-117.49954986572266,-7.167697906494141,-31.38055992126465,Left
4557.462890625,14905,1,3815.0,1735.0,1686.0,1911.0,1775.0,1749.0,1737.0,1773.0,-117.49954986572266,-7.167697906494141,-31.38055992126465,Left
4559.462890625,14905,1,2297.0,1751.0,1661.0,1797.0,1765.0,1769.0,1797.0,1773.0,-117.49954986572266,-7.167697906494141,-31.38055992126465,Left
4561.462890625,14905,1,0.0,1736.0,1583.0,1757.0,1742.0,1747.0,1741.0,1724.0,-117.49954986572266,-7.167697906494141,-31.38055992126465,Left
4553.462890625,14906,1,0.0,1743.0,1375.0,1701.0,1739.0,1736.0,1737.0,1657.0,-117.49954986572266,-7.167697906494141,-31.38055992126465,Left
4555.462890625,14906,1,0.0,1765.0,1478.0,1645.0,1743.0,1752.0,1757.0,1637.0,-117.49954986572266,-7.167697906494141,-31.38055992126465,Left
4557.462890625,14906,1,0.0,1764.0,1691.0,1708.0,1719.0,1735.0,1735.0,1669.0,-117.49954986572266,-7.167697906494141,-31.38055992126465,Left
4559.462890625,14906,1,893.0,1755.0,1867.0,1678.0,1723.0,1751.0,1755.0,1653.0,-117.49954986572266,-7.167697906494141,-31.38055992126465,Left
4561.462890625,14906,1,3815.0,1775.0,1939.0,1707.0,1766.0,1753.0,1751.0,1702.0,-118.15369415283203,-7.121364593505859,-31.631179809570312,Left
4553.462890625,14907,1,3817.0,1806.0,1915.0,1741.0,1780.0,1767.0,1771.0,1768.0,-118.15369415283203,-7.121364593505859,-31.631179809570312,Left
4555.462890625,14907,1,3816.0,1763.0,1878.0,1647.0,1756.0,1753.0,1759.0,1759.0,-118.15369415283203,-7.121364593505859,-31.631179809570312,Left
4557.462890625,14907,1,3823.0,1754.0,1478.0,1611.0,1764.0,1740.0,1759.0,1716.0,-118.15369415283203,-7.121364593505859,-31.631179809570312,Left
4559.462890625,14907,1,2879.0,1746.0,1599.0,1598.0,1765.0,1737.0,1743.0,1657.0,-118.15369415283203,-7.121364593505859,-31.631179809570312,Left
4561.462890625,14907,1,0.0,1766.0,1623.0,1612.0,1757.0,1739.0,1747.0,1565.0,-118.15369415283203,-7.121364593505859,-31.631179809570312,Left
4553.462890625,14908,1,0.0,1733.0,1305.0,1588.0,1757.0,1756.0,1781.0,1478.0,-118.15369415283203,-7.121364593505859,-31.631179809570312,Left
4555.462890625,14908,1,0.0,1719.0,1483.0,1581.0,1739.0,1749.0,1763.0,1445.0,-118.15369415283203,-7.121364593505859,-31.631179809570312,Left
4557.462890625,14908,1,0.0,1765.0,1499.0,1617.0,1721.0,1746.0,1741.0,1433.0,-118.15369415283203,-7.121364593505859,-31.631179809570312,Left
4559.462890625,14908,1,176.0,1783.0,1711.0,1700.0,1735.0,1749.0,1778.0,1574.0,-118.15369415283203,-7.121364593505859,-31.631179809570312,Left
4561.462890625,14908,1,3845.0,1787.0,1981.0,1779.0,1775.0,1739.0,1751.0,1674.0,-118.15369415283203,-7.121364593505859,-31.631179809570312,Left
4553.462890625,14909,1,3817.0,1727.0,1983.0,1839.0,1755.0,1751.0,1747.0,1695.0,-118.15369415283203,-7.121364593505859,-31.631179809570312,Left
4555.462890625,14909,1,3815.0,1749.0,1772.0,1829.0,1757.0,1769.0,1757.0,1700.0,-118.15369415283203,-7.121364593505859,-31.631179809570312,Left
4557.462890625,14909,1,3814.0,1737.0,1652.0,1773.0,1748.0,1733.0,1747.0,1645.0,-118.15369415283203,-7.121364593505859,-31.631179809570312,Left
4559.462890625,14909,1,3819.0,1709.0,1467.0,1764.0,1750.0,1751.0,1758.0,1627.0,-118.15369415283203,-7.121364593505859,-31.631179809570312,Left
4561.462890625,14909,1,0.0,1709.0,1517.0,1735.0,1757.0,1737.0,1762.0,1645.0,-118.15369415283203,-7.121364593505859,-31.631179809570312,Left
4553.462890625,14910,1,0.0,1737.0,1591.0,1739.0,1772.0,1750.0,1753.0,1624.0,-118.15369415283203,-7.121364593505859,-31.631179809570312,Left
4555.462890625,14910,1,0.0,1747.0,1675.0,1723.0,1737.0,1759.0,1767.0,1648.0,-118.15369415283203,-7.121364593505859,-31.631179809570312,Left
4557.462890625,14910,1,0.0,1751.0,1687.0,1845.0,1703.0,1761.0,1764.0,1703.0,-118.15369415283203,-7.121364593505859,-31.631179809570312,Left
4559.462890625,14910,1,0.0,1750.0,1934.0,1869.0,1699.0,1751.0,1771.0,1803.0,-118.15369415283203,-7.121364593505859,-31.631179809570312,Left
4561.462890625,14910,1,3813.0,1762.0,2099.0,1897.0,1727.0,1739.0,1709.0,1927.0,-118.15369415283203,-7.121364593505859,-31.631179809570312,Left
4571.0087890625,14911,1,3817.0,1769.0,2286.0,1849.0,1740.0,1740.0,1753.0,1939.0,-118.15369415283203,-7.121364593505859,-31.631179809570312,Left
4573.0087890625,14911,1,3817.0,1798.0,2023.0,1791.0,1754.0,1751.0,1767.0,1861.0,-118.15369415283203,-7.121364593505859,-31.631179809570312,Left
4575.0087890625,14911,1,3818.0,1751.0,1791.0,1775.0,1748.0,1747.0,1764.0,1877.0,-118.15369415283203,-7.121364593505859,-31.631179809570312,Left
4577.0087890625,14911,1,3827.0,1756.0,1913.0,1685.0,1753.0,1755.0,1755.0,1829.0,-118.15369415283203,-7.121364593505859,-31.631179809570312,Left
4579.0087890625,14911,1,0.0,1767.0,1782.0,1663.0,1747.0,1752.0,1749.0,1739.0,-118.15369415283203,-7.121364593505859,-31.631179809570312,Left
4585.7734375,14912,1,0.0,1762.0,1563.0,1646.0,1747.0,1741.0,1739.0,1705.0,-118.15369415283203,-7.121364593505859,-31.631179809570312,Left
4587.7734375,14912,1,0.0,1765.0,1669.0,1685.0,1707.0,1753.0,1752.0,1684.0,-118.15369415283203,-7.121364593505859,-31.631179809570312,Left
4589.7734375,14912,1,0.0,1773.0,1669.0,1759.0,1749.0,1739.0,1771.0,1725.0,-118.15369415283203,-7.121364593505859,-31.631179809570312,Left
4591.7734375,14912,1,0.0,1767.0,1960.0,1862.0,1719.0,1747.0,1759.0,1843.0,-118.15369415283203,-7.121364593505859,-31.631179809570312,Left
4593.7734375,14912,1,3824.0,1743.0,1971.0,1908.0,1721.0,1743.0,1753.0,1881.0,-118.15369415283203,-7.121364593505859,-31.631179809570312,Left
4587.75439453125,14913,1,3820.0,1753.0,1981.0,1879.0,1780.0,1756.0,1747.0,1943.0,-118.15369415283203,-7.121364593505859,-31.631179809570312,Left
4589.75439453125,14913,1,3863.0,1763.0,1899.0,1884.0,1775.0,1752.0,1755.0,1963.0,-118.15369415283203,-7.121364593505859,-31.631179809570312,Left
4591.75439453125,14913,1,3815.0,1747.0,1709.0,1846.0,1767.0,1751.0,1748.0,2068.0,-118.37808227539062,-6.586579322814941,-31.77402687072754,Left
4593.75439453125,14913,1,3824.0,1761.0,1631.0,1802.0,1762.0,1761.0,1789.0,2073.0,-118.37808227539062,-6.586579322814941,-31.77402687072754,Left
4595.75439453125,14913,1,0.0,1748.0,1431.0,1803.0,1749.0,1748.0,1765.0,1989.0,-118.37808227539062,-6.586579322814941,-31.77402687072754,Left
4601.90478515625,14914,1,0.0,1759.0,1415.0,1663.0,1780.0,1752.0,1751.0,1885.0,-118.37808227539062,-6.586579322814941,-31.77402687072754,Left
4603.90478515625,14914,1,0.0,1769.0,1493.0,1617.0,1737.0,1751.0,1762.0,1929.0,-118.37808227539062,-6.586579322814941,-31.77402687072754,Left
4605.90478515625,14914,1,0.0,1737.0,1563.0,1567.0,1733.0,1747.0,1755.0,1941.0,-118.37808227539062,-6.586579322814941,-31.77402687072754,Left
4607.90478515625,14914,1,0.0,1753.0,1692.0,1630.0,1719.0,1749.0,1747.0,2027.0,-118.37808227539062,-6.586579322814941,-31.77402687072754,Left
4609.90478515625,14914,1,3821.0,1743.0,1878.0,1695.0,1736.0,1751.0,1753.0,2121.0,-118.37808227539062,-6.586579322814941,-31.77402687072754,Left
4601.90478515625,14915,1,3814.0,1745.0,1767.0,1746.0,1763.0,1757.0,1757.0,2087.0,-118.37808227539062,-6.586579322814941,-31.77402687072754,Left
4603.90478515625,14915,1,3819.0,1768.0,1804.0,1801.0,1755.0,1755.0,1757.0,2041.0,-118.37808227539062,-6.586579322814941,-31.77402687072754,Left
4605.90478515625,14915,1,3817.0,1773.0,1739.0,1785.0,1757.0,1738.0,1751.0,1972.0,-118.37808227539062,-6.586579322814941,-31.77402687072754,Left
4607.90478515625,14915,1,3822.0,1771.0,1811.0,1801.0,1765.0,1763.0,1763.0,1865.0,-118.37808227539062,-6.586579322814941,-31.77402687072754,Left
4609.90478515625,14915,1,0.0,1782.0,1811.0,1791.0,1766.0,1745.0,1759.0,1761.0,-118.37808227539062,-6.586579322814941,-31.77402687072754,Left
4637.61376953125,14916,1,0.0,1755.0,1541.0,1701.0,1770.0,1747.0,1753.0,1685.0,-118.37808227539062,-6.586579322814941,-31.77402687072754,Left
4639.61376953125,14916,1,0.0,1764.0,1401.0,1595.0,1739.0,1753.0,1767.0,1607.0,-118.37808227539062,-6.586579322814941,-31.77402687072754,Left
4641.61376953125,14916,1,0.0,1773.0,1388.0,1674.0,1753.0,1747.0,1763.0,1634.0,-118.37808227539062,-6.586579322814941,-31.77402687072754,Left
4643.61376953125,14916,1,0.0,1788.0,1639.0,1734.0,1724.0,1753.0,1759.0,1759.0,-118.37808227539062,-6.586579322814941,-31.77402687072754,Left
4645.61376953125,14916,1,3813.0,1755.0,1983.0,1772.0,1737.0,1755.0,1753.0,1850.0,-118.37808227539062,-6.586579322814941,-31.77402687072754,Left
4637.61376953125,14917,1,3815.0,1735.0,1989.0,1800.0,1746.0,1737.0,1747.0,1783.0,-118.37808227539062,-6.586579322814941,-31.77402687072754,Left
4639.61376953125,14917,1,3823.0,1747.0,1895.0,1837.0,1767.0,1747.0,1747.0,1753.0,-118.37808227539062,-6.586579322814941,-31.77402687072754,Left
4641.61376953125,14917,1,3819.0,1775.0,1891.0,1817.0,1770.0,1727.0,1747.0,1747.0,-118.37808227539062,-6.586579322814941,-31.77402687072754,Left
4643.61376953125,14917,1,3817.0,1785.0,1855.0,1805.0,1773.0,1755.0,1757.0,1645.0,-118.37808227539062,-6.586579322814941,-31.77402687072754,Left
4645.61376953125,14917,1,0.0,1765.0,1574.0,1721.0,1740.0,1739.0,1753.0,1625.0,-118.37808227539062,-6.586579322814941,-31.77402687072754,Left
4637.61376953125,14918,1,0.0,1773.0,1400.0,1727.0,1779.0,1749.0,1755.0,1636.0,-118.37808227539062,-6.586579322814941,-31.77402687072754,Left
4639.61376953125,14918,1,0.0,1759.0,1339.0,1684.0,1755.0,1755.0,1759.0,1817.0,-118.37808227539062,-6.586579322814941,-31.77402687072754,Left
4641.61376953125,14918,1,0.0,1753.0,1543.0,1673.0,1741.0,1757.0,1767.0,1823.0,-118.37808227539062,-6.586579322814941,-31.77402687072754,Left
4643.61376953125,14918,1,0.0,1749.0,1629.0,1747.0,1725.0,1751.0,1748.0,1929.0,-118.37808227539062,-6.586579322814941,-31.77402687072754,Left
4645.61376953125,14918,1,3827.0,1773.0,1681.0,1893.0,1739.0,1752.0,1767.0,1927.0,-118.37808227539062,-6.586579322814941,-31.77402687072754,Left
4651.64501953125,14919,1,3812.0,1756.0,1739.0,1911.0,1747.0,1748.0,1763.0,1867.0,-118.37808227539062,-6.586579322814941,-31.77402687072754,Left
4653.64501953125,14919,1,3823.0,1750.0,1742.0,1886.0,1755.0,1743.0,1757.0,1762.0,-118.37808227539062,-6.586579322814941,-31.77402687072754,Left
4655.64501953125,14919,1,3815.0,1741.0,1869.0,1801.0,1755.0,1748.0,1755.0,1663.0,-118.37808227539062,-6.586579322814941,-31.77402687072754,Left
4657.64501953125,14919,1,3815.0,1773.0,1861.0,1765.0,1769.0,1747.0,1757.0,1563.0,-118.37808227539062,-6.586579322814941,-31.77402687072754,Left
4659.64501953125,14919,1,0.0,1767.0,1944.0,1659.0,1753.0,1751.0,1742.0,1499.0,-119.2071533203125,-6.180069446563721,-31.94025993347168,Left
4666.068359375,14920,1,0.0,1815.0,1620.0,1563.0,1768.0,1753.0,1765.0,1437.0,-119.2071533203125,-6.180069446563721,-31.94025993347168,Left
4668.068359375,14920,1,0.0,1787.0,1477.0,1577.0,1740.0,1742.0,1771.0,1399.0,-119.2071533203125,-6.180069446563721,-31.94025993347168,Left
4670.068359375,14920,1,0.0,1738.0,1720.0,1639.0,1727.0,1738.0,1763.0,1395.0,-119.2071533203125,-6.180069446563721,-31.94025993347168,Left
4672.068359375,14920,1,0.0,1739.0,2147.0,1733.0,1733.0,1749.0,1751.0,1483.0,-119.2071533203125,-6.180069446563721,-31.94025993347168,Left
4674.068359375,14920,1,3815.0,1751.0,2287.0,1756.0,1759.0,1755.0,1771.0,1565.0,-119.2071533203125,-6.180069446563721,-31.94025993347168,Left
4717.72119140625,14921,1,3817.0,1747.0,2133.0,1750.0,1753.0,1750.0,1745.0,1596.0,-119.2071533203125,-6.180069446563721,-31.94025993347168,Left
4719.72119140625,14921,1,3821.0,1755.0,2013.0,1770.0,1754.0,1754.0,1765.0,1588.0,-119.2071533203125,-6.180069446563721,-31.94025993347168,Left
4721.72119140625,14921,1,3816.0,1781.0,1925.0,1801.0,1766.0,1746.0,1757.0,1595.0,-119.2071533203125,-6.180069446563721,-31.94025993347168,Left
4723.72119140625,14921,1,3823.0,1783.0,1525.0,1806.0,1789.0,1755.0,1778.0,1492.0,-119.2071533203125,-6.180069446563721,-31.94025993347168,Left
4725.72119140625,14921,1,0.0,1785.0,1596.0,1769.0,1774.0,1762.0,1764.0,1419.0,-119.2071533203125,-6.180069446563721,-31.94025993347168,Left
4717.72119140625,14922,1,0.0,1747.0,1544.0,1705.0,1772.0,1751.0,1752.0,1332.0,-119.2071533203125,-6.180069446563721,-31.94025993347168,Left
4719.72119140625,14922,1,0.0,1727.0,1548.0,1685.0,1742.0,1735.0,1749.0,1364.0,-119.2071533203125,-6.180069446563721,-31.94025993347168,Left
4721.72119140625,14922,1,0.0,1749.0,1496.0,1737.0,1737.0,1745.0,1752.0,1451.0,-119.2071533203125,-6.180069446563721,-31.94025993347168,Left
4723.72119140625,14922,1,0.0,1741.0,1629.0,1879.0,1717.0,1746.0,1741.0,1561.0,-119.2071533203125,-6.180069446563721,-31.94025993347168,Left
4725.72119140625,14922,1,3838.0,1753.0,1884.0,1912.0,1727.0,1753.0,1765.0,1637.0,-119.2071533203125,-6.180069446563721,-31.94025993347168,Left
4717.72119140625,14923,1,3816.0,1768.0,1768.0,1852.0,1751.0,1762.0,1750.0,1655.0,-119.2071533203125,-6.180069446563721,-31.94025993347168,Left
4719.72119140625,14923,1,3823.0,1781.0,1783.0,1835.0,1758.0,1743.0,1757.0,1704.0,-119.2071533203125,-6.180069446563721,-31.94025993347168,Left
4721.72119140625,14923,1,3813.0,1765.0,1704.0,1911.0,1757.0,1723.0,1721.0,1656.0,-119.2071533203125,-6.180069446563721,-31.94025993347168,Left
4723.72119140625,14923,1,3816.0,1752.0,1607.0,1895.0,1763.0,1751.0,1753.0,1583.0,-119.2071533203125,-6.180069446563721,-31.94025993347168,Left
4725.72119140625,14923,1,459.0,1765.0,1631.0,1716.0,1767.0,1756.0,1771.0,1509.0,-119.2071533203125,-6.180069446563721,-31.94025993347168,Left
4717.72119140625,14924,1,0.0,1765.0,1507.0,1707.0,1773.0,1765.0,1775.0,1459.0,-119.2071533203125,-6.180069446563721,-31.94025993347168,Left
4719.72119140625,14924,1,0.0,1765.0,1527.0,1615.0,1755.0,1743.0,1759.0,1437.0,-119.2071533203125,-6.180069446563721,-31.94025993347168,Left
4721.72119140625,14924,1,0.0,1757.0,1464.0,1587.0,1739.0,1741.0,1749.0,1519.0,-119.2071533203125,-6.180069446563721,-31.94025993347168,Left
4723.72119140625,14924,1,0.0,1753.0,1557.0,1595.0,1720.0,1755.0,1754.0,1619.0,-119.2071533203125,-6.180069446563721,-31.94025993347168,Left
4725.72119140625,14924,1,3820.0,1749.0,1674.0,1657.0,1722.0,1751.0,1739.0,1783.0,-119.2071533203125,-6.180069446563721,-31.94025993347168,Left
4717.72119140625,14925,1,3807.0,1751.0,1926.0,1706.0,1736.0,1739.0,1742.0,1870.0,-119.2071533203125,-6.180069446563721,-31.94025993347168,Left
4719.72119140625,14925,1,3814.0,1741.0,2027.0,1803.0,1766.0,1733.0,1757.0,1821.0,-119.2071533203125,-6.180069446563721,-31.94025993347168,Left
4721.72119140625,14925,1,3824.0,1757.0,2013.0,1807.0,1767.0,1756.0,1769.0,1797.0,-119.2071533203125,-6.180069446563721,-31.94025993347168,Left
4723.72119140625,14925,1,3815.0,1759.0,1901.0,1757.0,1763.0,1763.0,1752.0,1767.0,-119.2071533203125,-6.180069446563721,-31.94025993347168,Left
4725.72119140625,14925,1,999.0,1765.0,1883.0,1759.0,1749.0,1727.0,1757.0,1717.0,-119.2071533203125,-6.180069446563721,-31.94025993347168,Left
4717.72119140625,14926,1,0.0,1759.0,1852.0,1771.0,1741.0,1739.0,1756.0,1637.0,-119.2071533203125,-6.180069446563721,-31.94025993347168,Left
4719.72119140625,14926,1,0.0,1771.0,1715.0,1721.0,1783.0,1767.0,1741.0,1609.0,-119.2071533203125,-6.180069446563721,-31.94025993347168,Left
4721.72119140625,14926,1,0.0,1747.0,1745.0,1741.0,1789.0,1767.0,1801.0,1684.0,-119.7071762084961,-5.8445210456848145,-32.00862121582031,Left
4723.72119140625,14926,1,0.0,1753.0,1720.0,1787.0,1743.0,1736.0,1749.0,1837.0,-119.7071762084961,-5.8445210456848145,-32.00862121582031,Left
4725.72119140625,14926,1,3816.0,1741.0,1975.0,1899.0,1727.0,1755.0,1765.0,1865.0,-119.7071762084961,-5.8445210456848145,-32.00862121582031,Left
4734.73583984375,14927,1,3822.0,1753.0,1973.0,1852.0,1753.0,1743.0,1743.0,1847.0,-119.7071762084961,-5.8445210456848145,-32.00862121582031,Left
4736.73583984375,14927,1,3817.0,1756.0,1941.0,1747.0,1773.0,1747.0,1735.0,1949.0,-119.7071762084961,-5.8445210456848145,-32.00862121582031,Left
4738.73583984375,14927,1,3816.0,1762.0,1773.0,1709.0,1767.0,1759.0,1759.0,1891.0,-119.7071762084961,-5.8445210456848145,-32.00862121582031,Left
4740.73583984375,14927,1,3819.0,1753.0,1734.0,1691.0,1749.0,1759.0,1765.0,1885.0,-119.7071762084961,-5.8445210456848145,-32.00862121582031,Left
4742.73583984375,14927,1,1690.0,1765.0,1775.0,1658.0,1752.0,1735.0,1751.0,1815.0,-119.7071762084961,-5.8445210456848145,-32.00862121582031,Left
4812.88720703125,14928,1,0.0,1757.0,1775.0,1655.0,1751.0,1717.0,1747.0,1753.0,-119.7071762084961,-5.8445210456848145,-32.00862121582031,Left
4814.88720703125,14928,1,0.0,1779.0,1583.0,1682.0,1753.0,1765.0,1783.0,1671.0,-119.7071762084961,-5.8445210456848145,-32.00862121582031,Left
4816.88720703125,14928,1,0.0,1751.0,1661.0,1669.0,1715.0,1755.0,1751.0,1720.0,-119.7071762084961,-5.8445210456848145,-32.00862121582031,Left
4818.88720703125,14928,1,0.0,1757.0,1641.0,1723.0,1709.0,1763.0,1771.0,1828.0,-119.7071762084961,-5.8445210456848145,-32.00862121582031,Left
4820.88720703125,14928,1,2583.0,1759.0,2002.0,1868.0,1709.0,1747.0,1759.0,1973.0,-119.7071762084961,-5.8445210456848145,-32.00862121582031,Left
4812.88720703125,14929,1,3813.0,1765.0,1979.0,1909.0,1727.0,1749.0,1753.0,2037.0,-119.7071762084961,-5.8445210456848145,-32.00862121582031,Left
4814.88720703125,14929,1,3815.0,1757.0,1759.0,1845.0,1740.0,1753.0,1756.0,2019.0,-119.7071762084961,-5.8445210456848145,-32.00862121582031,Left
4816.88720703125,14929,1,3821.0,1749.0,1779.0,1900.0,1738.0,1743.0,1751.0,1941.0,-119.7071762084961,-5.8445210456848145,-32.00862121582031,Left
4818.88720703125,14929,1,3821.0,1758.0,1579.0,1851.0,1751.0,1743.0,1752.0,1894.0,-119.7071762084961,-5.8445210456848145,-32.00862121582031,Left
4820.88720703125,14929,1,2071.0,1747.0,1691.0,1765.0,1749.0,1750.0,1757.0,1759.0,-119.7071762084961,-5.8445210456848145,-32.00862121582031,Left
4812.88720703125,14930,1,0.0,1771.0,1746.0,1781.0,1753.0,1739.0,1753.0,1609.0,-119.7071762084961,-5.8445210456848145,-32.00862121582031,Left
4814.88720703125,14930,1,0.0,1769.0,1496.0,1651.0,1767.0,1743.0,1747.0,1493.0,-119.7071762084961,-5.8445210456848145,-32.00862121582031,Left
4816.88720703125,14930,1,0.0,1755.0,1624.0,1583.0,1747.0,1751.0,1763.0,1511.0,-119.7071762084961,-5.8445210456848145,-32.00862121582031,Left
4818.88720703125,14930,1,0.0,1749.0,1657.0,1689.0,1727.0,1753.0,1751.0,1627.0,-119.7071762084961,-5.8445210456848145,-32.00862121582031,Left
4820.88720703125,14930,1,1289.0,1757.0,1951.0,1779.0,1723.0,1762.0,1757.0,1725.0,-119.7071762084961,-5.8445210456848145,-32.00862121582031,Left
4812.88720703125,14931,1,3821.0,1801.0,1839.0,1864.0,1767.0,1764.0,1779.0,1784.0,-119.7071762084961,-5.8445210456848145,-32.00862121582031,Left
4814.88720703125,14931,1,3819.0,1769.0,2053.0,1865.0,1716.0,1748.0,1758.0,1790.0,-119.7071762084961,-5.8445210456848145,-32.00862121582031,Left
4816.88720703125,14931,1,3821.0,1758.0,1724.0,1791.0,1755.0,1740.0,1751.0,1737.0,-119.7071762084961,-5.8445210456848145,-32.00862121582031,Left
4818.88720703125,14931,1,3819.0,1786.0,1701.0,1805.0,1757.0,1768.0,1773.0,1704.0,-119.7071762084961,-5.8445210456848145,-32.00862121582031,Left
4820.88720703125,14931,1,2521.0,1755.0,1603.0,1673.0,1741.0,1741.0,1747.0,1657.0,-119.7071762084961,-5.8445210456848145,-32.00862121582031,Left
4812.88720703125,14932,1,0.0,1747.0,1487.0,1591.0,1742.0,1747.0,1741.0,1620.0,-119.7071762084961,-5.8445210456848145,-32.00862121582031,Left
4814.88720703125,14932,1,0.0,1753.0,1433.0,1560.0,1747.0,1752.0,1771.0,1559.0,-119.7071762084961,-5.8445210456848145,-32.00862121582031,Left
4816.88720703125,14932,1,0.0,1753.0,1628.0,1605.0,1724.0,1743.0,1757.0,1597.0,-119.7071762084961,-5.8445210456848145,-32.00862121582031,Left
4818.88720703125,14932,1,0.0,1763.0,1669.0,1651.0,1723.0,1749.0,1757.0,1671.0,-119.7071762084961,-5.8445210456848145,-32.00862121582031,Left
4820.88720703125,14932,1,405.0,1757.0,1851.0,1773.0,1735.0,1753.0,1743.0,1837.0,-120.18673706054688,-5.764512062072754,-32.25178527832031,Left
4812.88720703125,14933,1,3814.0,1749.0,1677.0,1881.0,1743.0,1751.0,1756.0,1927.0,-120.18673706054688,-5.764512062072754,-32.25178527832031,Left
4814.88720703125,14933,1,3819.0,1754.0,1786.0,1880.0,1759.0,1737.0,1742.0,1927.0,-120.18673706054688,-5.764512062072754,-32.25178527832031,Left
4816.88720703125,14933,1,3816.0,1759.0,1723.0,1863.0,1763.0,1740.0,1751.0,1915.0,-120.18673706054688,-5.764512062072754,-32.25178527832031,Left
4818.88720703125,14933,1,3819.0,1787.0,1827.0,1865.0,1756.0,1753.0,1763.0,1836.0,-120.18673706054688,-5.764512062072754,-32.25178527832031,Left
4820.88720703125,14933,1,3416.0,1770.0,1803.0,1754.0,1756.0,1756.0,1763.0,1739.0,-120.18673706054688,-5.764512062072754,-32.25178527832031,Left
4812.88720703125,14934,1,0.0,1759.0,1707.0,1737.0,1755.0,1747.0,1763.0,1701.0,-120.18673706054688,-5.764512062072754,-32.25178527832031,Left
4814.88720703125,14934,1,0.0,1755.0,1629.0,1709.0,1735.0,1749.0,1769.0,1614.0,-120.18673706054688,-5.764512062072754,-32.25178527832031,Left
4816.88720703125,14934,1,0.0,1755.0,1641.0,1695.0,1741.0,1748.0,1762.0,1589.0,-120.18673706054688,-5.764512062072754,-32.25178527832031,Left
4818.88720703125,14934,1,0.0,1751.0,1691.0,1685.0,1741.0,1750.0,1752.0,1657.0,-120.18673706054688,-5.764512062072754,-32.25178527832031,Left
4820.88720703125,14934,1,0.0,1748.0,2130.0,1677.0,1725.0,1743.0,1748.0,1801.0,-120.18673706054688,-5.764512062072754,-32.25178527832031,Left
4812.88720703125,14935,1,3816.0,1755.0,2138.0,1773.0,1753.0,1752.0,1757.0,1947.0,-120.18673706054688,-5.764512062072754,-32.25178527832031,Left
4814.88720703125,14935,1,3819.0,1740.0,2329.0,1786.0,1735.0,1737.0,1748.0,2006.0,-120.18673706054688,-5.764512062072754,-32.25178527832031,Left
4816.88720703125,14935,1,3815.0,1739.0,2056.0,1845.0,1747.0,1750.0,1755.0,1971.0,-120.18673706054688,-5.764512062072754,-32.25178527832031,Left
4818.88720703125,14935,1,3817.0,1750.0,1995.0,1851.0,1763.0,1753.0,1772.0,1958.0,-120.18673706054688,-5.764512062072754,-32.25178527832031,Left
4820.88720703125,14935,1,3820.0,1755.0,1847.0,1757.0,1756.0,1772.0,1757.0,1913.0,-120.18673706054688,-5.764512062072754,-32.25178527832031,Left
4812.88720703125,14936,1,0.0,1751.0,1739.0,1785.0,1737.0,1747.0,1767.0,1837.0,-120.18673706054688,-5.764512062072754,-32.25178527832031,Left
4814.88720703125,14936,1,0.0,1759.0,1576.0,1723.0,1757.0,1722.0,1739.0,1709.0,-120.18673706054688,-5.764512062072754,-32.25178527832031,Left
4816.88720703125,14936,1,0.0,1763.0,1820.0,1683.0,1756.0,1751.0,1771.0,1699.0,-120.18673706054688,-5.764512062072754,-32.25178527832031,Left
4818.88720703125,14936,1,0.0,1759.0,1846.0,1645.0,1747.0,1767.0,1750.0,1717.0,-120.18673706054688,-5.764512062072754,-32.25178527832031,Left
4820.88720703125,14936,1,0.0,1747.0,1931.0,1771.0,1737.0,1727.0,1745.0,1893.0,-120.18673706054688,-5.764512062072754,-32.25178527832031,Left
4827.33349609375,14937,1,3815.0,1740.0,2080.0,1829.0,1699.0,1724.0,1727.0,1957.0,-120.18673706054688,-5.764512062072754,-32.25178527832031,Left
4829.33349609375,14937,1,3816.0,1742.0,2041.0,1815.0,1720.0,1752.0,1769.0,1961.0,-120.18673706054688,-5.764512062072754,-32.25178527832031,Left
4831.33349609375,14937,1,3813.0,1763.0,1804.0,1816.0,1755.0,1754.0,1769.0,1909.0,-120.18673706054688,-5.764512062072754,-32.25178527832031,Left
4833.33349609375,14937,1,3821.0,1779.0,1645.0,1759.0,1771.0,1759.0,1757.0,1815.0,-120.18673706054688,-5.764512062072754,-32.25178527832031,Left
4835.33349609375,14937,1,3819.0,1764.0,1482.0,1786.0,1781.0,1751.0,1751.0,1750.0,-120.18673706054688,-5.764512062072754,-32.25178527832031,Left
4843.6376953125,14938,1,0.0,1767.0,1609.0,1703.0,1769.0,1751.0,1763.0,1755.0,-120.18673706054688,-5.764512062072754,-32.25178527832031,Left
4845.6376953125,14938,1,0.0,1775.0,1467.0,1615.0,1785.0,1759.0,1763.0,1646.0,-120.18673706054688,-5.764512062072754,-32.25178527832031,Left
4847.6376953125,14938,1,0.0,1743.0,1528.0,1597.0,1737.0,1747.0,1754.0,1651.0,-120.18673706054688,-5.764512062072754,-32.25178527832031,Left
4849.6376953125,14938,1,0.0,1747.0,1738.0,1639.0,1737.0,1737.0,1755.0,1755.0,-120.18673706054688,-5.764512062072754,-32.25178527832031,Left
4851.6376953125,14938,1,0.0,1755.0,2021.0,1717.0,1715.0,1741.0,1759.0,1935.0,-120.18673706054688,-5.764512062072754,-32.25178527832031,Left
4877.75439453125,14939,1,3818.0,1750.0,1951.0,1704.0,1727.0,1741.0,1752.0,2059.0,-120.18673706054688,-5.764512062072754,-32.25178527832031,Left
4879.75439453125,14939,1,3817.0,1772.0,1779.0,1707.0,1764.0,1755.0,1750.0,2055.0,-120.18673706054688,-5.764512062072754,-32.25178527832031,Left
4881.75439453125,14939,1,3819.0,1775.0,1591.0,1707.0,1769.0,1765.0,1772.0,1935.0,-120.21351623535156,-5.610630035400391,-32.280670166015625,Left
4883.75439453125,14939,1,3815.0,1775.0,1507.0,1724.0,1779.0,1757.0,1779.0,1916.0,-120.21351623535156,-5.610630035400391,-32.280670166015625,Left
4885.75439453125,14939,1,3821.0,1763.0,1448.0,1688.0,1779.0,1751.0,1763.0,1743.0,-120.21351623535156,-5.610630035400391,-32.280670166015625,Left
4877.75439453125,14940,1,0.0,1753.0,1523.0,1725.0,1755.0,1739.0,1749.0,1645.0,-120.21351623535156,-5.610630035400391,-32.280670166015625,Left
4879.75439453125,14940,1,0.0,1759.0,1351.0,1759.0,1771.0,1763.0,1763.0,1561.0,-120.21351623535156,-5.610630035400391,-32.280670166015625,Left
4881.75439453125,14940,1,0.0,1753.0,1405.0,1831.0,1752.0,1755.0,1753.0,1532.0,-120.21351623535156,-5.610630035400391,-32.280670166015625,Left
4883.75439453125,14940,1,0.0,1754.0,1530.0,1813.0,1723.0,1738.0,1753.0,1613.0,-120.21351623535156,-5.610630035400391,-32.280670166015625,Left
4885.75439453125,14940,1,0.0,1779.0,1629.0,1867.0,1725.0,1743.0,1757.0,1723.0,-120.21351623535156,-5.610630035400391,-32.280670166015625,Left
4877.75439453125,14941,1,3813.0,1739.0,1768.0,1846.0,1723.0,1741.0,1751.0,1881.0,-120.21351623535156,-5.610630035400391,-32.280670166015625,Left
4879.75439453125,14941,1,3817.0,1762.0,1885.0,1866.0,1747.0,1738.0,1757.0,1963.0,-120.21351623535156,-5.610630035400391,-32.280670166015625,Left
4881.75439453125,14941,1,3822.0,1757.0,1839.0,1811.0,1768.0,1752.0,1765.0,1867.0,-120.21351623535156,-5.610630035400391,-32.280670166015625,Left
4883.75439453125,14941,1,3831.0,1751.0,1587.0,1875.0,1767.0,1755.0,1763.0,1814.0,-120.21351623535156,-5.610630035400391,-32.280670166015625,Left
4885.75439453125,14941,1,3817.0,1766.0,1635.0,1818.0,1775.0,1755.0,1765.0,1707.0,-120.21351623535156,-5.610630035400391,-32.280670166015625,Left
4877.75439453125,14942,1,0.0,1754.0,1557.0,1745.0,1741.0,1752.0,1747.0,1657.0,-120.21351623535156,-5.610630035400391,-32.280670166015625,Left
4879.75439453125,14942,1,0.0,1768.0,1323.0,1751.0,1768.0,1757.0,1766.0,1557.0,-120.21351623535156,-5.610630035400391,-32.280670166015625,Left
4881.75439453125,14942,1,0.0,1755.0,1327.0,1689.0,1735.0,1751.0,1757.0,1507.0,-120.21351623535156,-5.610630035400391,-32.280670166015625,Left
4883.75439453125,14942,1,0.0,1746.0,1461.0,1757.0,1719.0,1747.0,1751.0,1579.0,-120.21351623535156,-5.610630035400391,-32.280670166015625,Left
4885.75439453125,14942,1,0.0,1757.0,1890.0,1780.0,1721.0,1748.0,1738.0,1687.0,-120.21351623535156,-5.610630035400391,-32.280670166015625,Left
4892.201171875,14943,1,3812.0,1748.0,1895.0,1855.0,1739.0,1747.0,1742.0,1837.0,-120.21351623535156,-5.610630035400391,-32.280670166015625,Left
4894.201171875,14943,1,3811.0,1764.0,1927.0,1832.0,1763.0,1751.0,1772.0,1919.0,-120.21351623535156,-5.610630035400391,-32.280670166015625,Left
4896.201171875,14943,1,3817.0,1780.0,1929.0,1804.0,1765.0,1748.0,1747.0,1829.0,-120.21351623535156,-5.610630035400391,-32.280670166015625,Left
4898.201171875,14943,1,3817.0,1755.0,1875.0,1843.0,1756.0,1749.0,1768.0,1683.0,-120.21351623535156,-5.610630035400391,-32.280670166015625,Left
4900.201171875,14943,1,3819.0,1748.0,1785.0,1675.0,1753.0,1755.0,1767.0,1599.0,-120.21351623535156,-5.610630035400391,-32.280670166015625,Left
4892.201171875,14944,1,0.0,1739.0,1715.0,1587.0,1757.0,1753.0,1763.0,1581.0,-120.21351623535156,-5.610630035400391,-32.280670166015625,Left
4894.201171875,14944,1,0.0,1764.0,1702.0,1621.0,1771.0,1757.0,1789.0,1490.0,-120.21351623535156,-5.610630035400391,-32.280670166015625,Left
4896.201171875,14944,1,0.0,1772.0,1507.0,1635.0,1747.0,1739.0,1765.0,1512.0,-120.21351623535156,-5.610630035400391,-32.280670166015625,Left
4898.201171875,14944,1,0.0,1727.0,1735.0,1659.0,1734.0,1745.0,1752.0,1597.0,-120.21351623535156,-5.610630035400391,-32.280670166015625,Left
4900.201171875,14944,1,0.0,1741.0,2065.0,1684.0,1717.0,1727.0,1727.0,1725.0,-120.21351623535156,-5.610630035400391,-32.280670166015625,Left
4916.35546875,14945,1,3818.0,1771.0,2215.0,1687.0,1741.0,1747.0,1765.0,1831.0,-120.21351623535156,-5.610630035400391,-32.280670166015625,Left
4918.35546875,14945,1,3813.0,1783.0,2204.0,1757.0,1756.0,1751.0,1765.0,1938.0,-120.21351623535156,-5.610630035400391,-32.280670166015625,Left
4920.35546875,14945,1,3818.0,1763.0,1933.0,1771.0,1747.0,1751.0,1747.0,1911.0,-120.21351623535156,-5.610630035400391,-32.280670166015625,Left
4922.35546875,14945,1,3816.0,1751.0,1783.0,1759.0,1755.0,1761.0,1763.0,1865.0,-120.21351623535156,-5.610630035400391,-32.280670166015625,Left
4924.35546875,14945,1,3819.0,1758.0,1801.0,1739.0,1763.0,1756.0,1775.0,1816.0,-120.37080383300781,-5.510094165802002,-32.321495056152344,Left
4924.32421875,14946,1,0.0,1759.0,1715.0,1735.0,1739.0,1749.0,1752.0,1742.0,-120.37080383300781,-5.510094165802002,-32.321495056152344,Left
4926.32421875,14946,1,0.0,1773.0,1673.0,1734.0,1753.0,1735.0,1755.0,1673.0,-120.37080383300781,-5.510094165802002,-32.321495056152344,Left
4928.32421875,14946,1,0.0,1769.0,1559.0,1725.0,1759.0,1757.0,1771.0,1620.0,-120.37080383300781,-5.510094165802002,-32.321495056152344,Left
4930.32421875,14946,1,0.0,1752.0,1704.0,1727.0,1754.0,1747.0,1747.0,1617.0,-120.37080383300781,-5.510094165802002,-32.321495056152344,Left
4932.32421875,14946,1,0.0,1741.0,2010.0,1719.0,1719.0,1739.0,1749.0,1735.0,-120.37080383300781,-5.510094165802002,-32.321495056152344,Left
4928.55859375,14947,1,3817.0,1749.0,2037.0,1818.0,1728.0,1751.0,1753.0,1823.0,-120.37080383300781,-5.510094165802002,-32.321495056152344,Left
4930.55859375,14947,1,3811.0,1749.0,1989.0,1939.0,1751.0,1761.0,1759.0,1843.0,-120.37080383300781,-5.510094165802002,-32.321495056152344,Left
4932.55859375,14947,1,3821.0,1761.0,2057.0,1890.0,1756.0,1749.0,1755.0,1839.0,-120.37080383300781,-5.510094165802002,-32.321495056152344,Left
4934.55859375,14947,1,3822.0,1761.0,1957.0,1813.0,1769.0,1747.0,1754.0,1726.0,-120.37080383300781,-5.510094165802002,-32.321495056152344,Left
4936.55859375,14947,1,3820.0,1747.0,1674.0,1821.0,1751.0,1743.0,1757.0,1745.0,-120.37080383300781,-5.510094165802002,-32.321495056152344,Left
4944.07177734375,14948,1,283.0,1771.0,1662.0,1773.0,1759.0,1747.0,1763.0,1631.0,-120.37080383300781,-5.510094165802002,-32.321495056152344,Left
4946.07177734375,14948,1,0.0,1759.0,1774.0,1737.0,1764.0,1752.0,1765.0,1568.0,-120.37080383300781,-5.510094165802002,-32.321495056152344,Left
4948.07177734375,14948,1,0.0,1768.0,1706.0,1682.0,1765.0,1755.0,1767.0,1524.0,-120.37080383300781,-5.510094165802002,-32.321495056152344,Left
4950.07177734375,14948,1,0.0,1762.0,1863.0,1743.0,1736.0,1751.0,1755.0,1605.0,-120.37080383300781,-5.510094165802002,-32.321495056152344,Left
4952.07177734375,14948,1,0.0,1745.0,1933.0,1855.0,1707.0,1749.0,1753.0,1741.0,-120.37080383300781,-5.510094165802002,-32.321495056152344,Left
4944.07177734375,14949,1,3821.0,1746.0,2181.0,1839.0,1739.0,1741.0,1749.0,1854.0,-120.37080383300781,-5.510094165802002,-32.321495056152344,Left
4946.07177734375,14949,1,3815.0,1757.0,2131.0,1971.0,1747.0,1755.0,1775.0,1903.0,-120.37080383300781,-5.510094165802002,-32.321495056152344,Left
4948.07177734375,14949,1,3821.0,1759.0,2230.0,1892.0,1763.0,1753.0,1773.0,1914.0,-120.37080383300781,-5.510094165802002,-32.321495056152344,Left
4950.07177734375,14949,1,3826.0,1770.0,2195.0,1789.0,1769.0,1755.0,1767.0,1865.0,-120.37080383300781,-5.510094165802002,-32.321495056152344,Left
4952.07177734375,14949,1,3814.0,1756.0,1927.0,1722.0,1769.0,1741.0,1755.0,1767.0,-120.37080383300781,-5.510094165802002,-32.321495056152344,Left
4956.19384765625,14950,1,779.0,1751.0,1657.0,1811.0,1747.0,1748.0,1752.0,1685.0,-120.37080383300781,-5.510094165802002,-32.321495056152344,Left
4958.19384765625,14950,1,0.0,1741.0,1700.0,1780.0,1753.0,1741.0,1758.0,1699.0,-120.37080383300781,-5.510094165802002,-32.321495056152344,Left
4960.19384765625,14950,1,0.0,1763.0,1523.0,1733.0,1757.0,1755.0,1761.0,1573.0,-120.37080383300781,-5.510094165802002,-32.321495056152344,Left
4962.19384765625,14950,1,0.0,1759.0,1609.0,1685.0,1749.0,1751.0,1751.0,1555.0,-120.37080383300781,-5.510094165802002,-32.321495056152344,Left
