Timestamp_ms,Packet_Number,Trial_ID,Ch1,Ch2,Ch3,Ch4,Ch5,Ch6,Ch7,Ch8,Ch9,Ch10,Ch11,Label
1998.822021484375,18200,1,1761.0,1765.0,1752.0,1817.0,1752.0,1781.0,1827.0,1565.0,-16.160429000854492,-28.245073318481445,11.514723777770996,Left
2000.822021484375,18200,1,1759.0,1767.0,1752.0,1892.0,1823.0,1774.0,824.0,1740.0,-16.160429000854492,-28.245073318481445,11.514723777770996,Left
2002.822021484375,18200,1,1762.0,1759.0,1749.0,2011.0,1753.0,1769.0,965.0,1769.0,-16.160429000854492,-28.245073318481445,11.514723777770996,Left
2004.822021484375,18200,1,1764.0,1767.0,1755.0,1865.0,1756.0,1725.0,1967.0,1591.0,-16.160429000854492,-28.245073318481445,11.514723777770996,Left
2006.822021484375,18200,1,1752.0,1765.0,1748.0,1685.0,1756.0,1727.0,2121.0,1464.0,-16.160429000854492,-28.245073318481445,11.514723777770996,Left
1999.7078857421875,18201,1,1763.0,1757.0,1748.0,1611.0,1756.0,1727.0,2013.0,1417.0,-16.160429000854492,-28.245073318481445,11.514723777770996,Left
2001.7078857421875,18201,1,1763.0,1755.0,1751.0,1549.0,1743.0,1723.0,1973.0,1129.0,-16.160429000854492,-28.245073318481445,11.514723777770996,Left
2003.7078857421875,18201,1,1763.0,1764.0,1721.0,1523.0,1753.0,1718.0,1929.0,1007.0,-16.160429000854492,-28.245073318481445,11.514723777770996,Left
2005.7078857421875,18201,1,1747.0,1749.0,1743.0,1592.0,1755.0,1751.0,1882.0,1191.0,-16.160429000854492,-28.245073318481445,11.514723777770996,Left
2007.7078857421875,18201,1,1748.0,1749.0,1782.0,1800.0,1740.0,1724.0,1839.0,1315.0,-16.160429000854492,-28.245073318481445,11.514723777770996,Left
2004.7371826171875,18202,1,1747.0,1749.0,1798.0,1798.0,1751.0,1761.0,1813.0,1407.0,-16.160429000854492,-28.245073318481445,11.514723777770996,Left
2006.7371826171875,18202,1,1751.0,1765.0,1753.0,1919.0,1751.0,1780.0,829.0,1737.0,-16.160429000854492,-28.245073318481445,11.514723777770996,Left
2008.7371826171875,18202,1,1762.0,1765.0,1741.0,2072.0,1757.0,1804.0,976.0,1742.0,-16.160429000854492,-28.245073318481445,11.514723777770996,Left
2010.7371826171875,18202,1,1757.0,1763.0,1767.0,1982.0,1752.0,1773.0,2065.0,1609.0,-16.160429000854492,-28.245073318481445,11.514723777770996,Left
2012.7371826171875,18202,1,1749.0,1765.0,1773.0,1813.0,1757.0,1746.0,2106.0,1519.0,-16.160429000854492,-28.245073318481445,11.514723777770996,Left
2019.14501953125,18203,1,1747.0,1765.0,1738.0,1748.0,1749.0,1738.0,2024.0,1485.0,-16.160429000854492,-28.245073318481445,11.514723777770996,Left
2021.14501953125,18203,1,1750.0,1767.0,1766.0,1596.0,1741.0,1743.0,1967.0,1212.0,-15.560976028442383,-28.399431228637695,11.869653701782227,Left
2023.14501953125,18203,1,1764.0,1762.0,1765.0,1515.0,1743.0,1736.0,1919.0,1179.0,-15.560976028442383,-28.399431228637695,11.869653701782227,Left
2025.14501953125,18203,1,1759.0,1759.0,1752.0,1589.0,1742.0,1740.0,1869.0,1359.0,-15.560976028442383,-28.399431228637695,11.869653701782227,Left
2027.14501953125,18203,1,1763.0,1763.0,1749.0,1724.0,1757.0,1739.0,1764.0,1583.0,-15.560976028442383,-28.399431228637695,11.869653701782227,Left
2027.7349853515625,18204,1,1767.0,1765.0,1747.0,1815.0,1739.0,1756.0,1829.0,1571.0,-15.560976028442383,-28.399431228637695,11.869653701782227,Left
2029.7349853515625,18204,1,1769.0,1751.0,1750.0,1881.0,1757.0,1751.0,853.0,2003.0,-15.560976028442383,-28.399431228637695,11.869653701782227,Left
2031.7349853515625,18204,1,1759.0,1764.0,1749.0,1947.0,1751.0,1756.0,1001.0,2095.0,-15.560976028442383,-28.399431228637695,11.869653701782227,Left
2033.7349853515625,18204,1,1751.0,1751.0,1751.0,1891.0,1751.0,1751.0,2151.0,1943.0,-15.560976028442383,-28.399431228637695,11.869653701782227,Left
2035.7349853515625,18204,1,1765.0,1762.0,1769.0,1753.0,1753.0,1759.0,2116.0,1727.0,-15.560976028442383,-28.399431228637695,11.869653701782227,Left
2035.26611328125,18205,1,1765.0,1757.0,1753.0,1613.0,1751.0,1757.0,2028.0,1711.0,-15.560976028442383,-28.399431228637695,11.869653701782227,Left
2037.26611328125,18205,1,1763.0,1763.0,1757.0,1628.0,1751.0,1723.0,1966.0,1516.0,-15.560976028442383,-28.399431228637695,11.869653701782227,Left
2039.26611328125,18205,1,1747.0,1767.0,1769.0,1607.0,1755.0,1749.0,1901.0,1561.0,-15.560976028442383,-28.399431228637695,11.869653701782227,Left
2041.26611328125,18205,1,1767.0,1758.0,1757.0,1752.0,1751.0,1767.0,1870.0,1774.0,-15.560976028442383,-28.399431228637695,11.869653701782227,Left
2043.26611328125,18205,1,1763.0,1749.0,1741.0,1797.0,1755.0,1767.0,1802.0,1885.0,-15.560976028442383,-28.399431228637695,11.869653701782227,Left
2050.5888671875,18206,1,1762.0,1763.0,1733.0,1752.0,1740.0,1763.0,1813.0,2021.0,-15.560976028442383,-28.399431228637695,11.869653701782227,Left
2052.5888671875,18206,1,1759.0,1765.0,1737.0,1908.0,1754.0,1781.0,844.0,2387.0,-15.560976028442383,-28.399431228637695,11.869653701782227,Left
2054.5888671875,18206,1,1762.0,1765.0,1742.0,1899.0,1756.0,1758.0,1001.0,2311.0,-15.560976028442383,-28.399431228637695,11.869653701782227,Left
2056.5888671875,18206,1,1767.0,1753.0,1762.0,1798.0,1750.0,1759.0,2133.0,2037.0,-15.560976028442383,-28.399431228637695,11.869653701782227,Left
2058.5888671875,18206,1,1755.0,1757.0,1783.0,1685.0,1755.0,1707.0,2104.0,1812.0,-15.560976028442383,-28.399431228637695,11.869653701782227,Left
2054.843017578125,18207,1,1763.0,1765.0,1783.0,1645.0,1739.0,1688.0,2019.0,3806.0,-15.560976028442383,-28.399431228637695,11.869653701782227,Left
2056.843017578125,18207,1,1746.0,1765.0,1779.0,1559.0,1757.0,1749.0,1955.0,3784.0,-15.560976028442383,-28.399431228637695,11.869653701782227,Left
2058.843017578125,18207,1,1751.0,1764.0,1775.0,1477.0,1756.0,1753.0,1913.0,3799.0,-15.560976028442383,-28.399431228637695,11.869653701782227,Left
2060.843017578125,18207,1,1755.0,1758.0,1733.0,1658.0,1754.0,1721.0,1862.0,3807.0,-15.560976028442383,-28.399431228637695,11.869653701782227,Left
2062.843017578125,18207,1,1759.0,1751.0,1739.0,1787.0,1753.0,1727.0,1823.0,3815.0,-15.560976028442383,-28.399431228637695,11.869653701782227,Left
2067.014892578125,18208,1,1762.0,1764.0,1722.0,1709.0,1755.0,1683.0,1821.0,3811.0,-15.560976028442383,-28.399431228637695,11.869653701782227,Left
2069.014892578125,18208,1,1763.0,1767.0,1741.0,1834.0,1753.0,1701.0,861.0,3811.0,-15.560976028442383,-28.399431228637695,11.869653701782227,Left
2071.014892578125,18208,1,1765.0,1749.0,1756.0,1948.0,1741.0,1723.0,1043.0,3789.0,-15.560976028442383,-28.399431228637695,11.869653701782227,Left
2073.014892578125,18208,1,1748.0,1749.0,1758.0,1925.0,1753.0,1723.0,2138.0,3428.0,-15.560976028442383,-28.399431228637695,11.869653701782227,Left
2075.014892578125,18208,1,1766.0,1765.0,1756.0,1807.0,1754.0,1723.0,2087.0,3062.0,-15.560976028442383,-28.399431228637695,11.869653701782227,Left
2074.743896484375,18209,1,1763.0,1765.0,1757.0,1717.0,1757.0,1720.0,2010.0,2779.0,-15.560976028442383,-28.399431228637695,11.869653701782227,Left
2076.743896484375,18209,1,1751.0,1766.0,1753.0,1659.0,1755.0,1708.0,1941.0,2589.0,-15.560976028442383,-28.399431228637695,11.869653701782227,Left
2078.743896484375,18209,1,1763.0,1767.0,1752.0,1447.0,1749.0,1726.0,1913.0,2428.0,-15.560976028442383,-28.399431228637695,11.869653701782227,Left
2080.743896484375,18209,1,1765.0,1763.0,1755.0,1618.0,1742.0,1753.0,1869.0,2315.0,-14.448051452636719,-28.744619369506836,12.574378967285156,Left
2082.743896484375,18209,1,1763.0,1749.0,1757.0,1623.0,1741.0,1752.0,1814.0,2191.0,-14.448051452636719,-28.744619369506836,12.574378967285156,Left
2087.020263671875,18210,1,1765.0,1765.0,1747.0,1716.0,1741.0,1755.0,1827.0,2105.0,-14.448051452636719,-28.744619369506836,12.574378967285156,Left
2089.020263671875,18210,1,1765.0,1761.0,1749.0,1842.0,1756.0,1781.0,869.0,2044.0,-14.448051452636719,-28.744619369506836,12.574378967285156,Left
2091.020263671875,18210,1,1754.0,1765.0,1771.0,1951.0,1741.0,1781.0,1078.0,2002.0,-14.448051452636719,-28.744619369506836,12.574378967285156,Left
2093.020263671875,18210,1,1756.0,1759.0,1767.0,1846.0,1754.0,1755.0,2147.0,1956.0,-14.448051452636719,-28.744619369506836,12.574378967285156,Left
2095.020263671875,18210,1,1759.0,1763.0,1762.0,1801.0,1752.0,1742.0,2102.0,1917.0,-14.448051452636719,-28.744619369506836,12.574378967285156,Left
2102.468994140625,18211,1,1765.0,1765.0,1736.0,1765.0,1752.0,1739.0,2005.0,1615.0,-14.448051452636719,-28.744619369506836,12.574378967285156,Left
2104.468994140625,18211,1,1762.0,1765.0,1767.0,1699.0,1755.0,1736.0,1955.0,1619.0,-14.448051452636719,-28.744619369506836,12.574378967285156,Left
2106.468994140625,18211,1,1763.0,1764.0,1763.0,1576.0,1751.0,1741.0,1907.0,1591.0,-14.448051452636719,-28.744619369506836,12.574378967285156,Left
2108.468994140625,18211,1,1762.0,1766.0,1753.0,1663.0,1752.0,1742.0,1867.0,1419.0,-14.448051452636719,-28.744619369506836,12.574378967285156,Left
2110.468994140625,18211,1,1748.0,1768.0,1751.0,1787.0,1755.0,1751.0,1817.0,1277.0,-14.448051452636719,-28.744619369506836,12.574378967285156,Left
2108.981201171875,18212,1,1758.0,1749.0,1736.0,1811.0,1751.0,1725.0,1819.0,1237.0,-14.448051452636719,-28.744619369506836,12.574378967285156,Left
2110.981201171875,18212,1,1759.0,1747.0,1745.0,1973.0,1749.0,1785.0,888.0,1189.0,-14.448051452636719,-28.744619369506836,12.574378967285156,Left
2112.981201171875,18212,1,1755.0,1767.0,1798.0,1975.0,1751.0,1787.0,1145.0,1199.0,-14.448051452636719,-28.744619369506836,12.574378967285156,Left
2114.981201171875,18212,1,1749.0,1763.0,1767.0,1871.0,1757.0,1783.0,2151.0,1139.0,-14.448051452636719,-28.744619369506836,12.574378967285156,Left
2116.981201171875,18212,1,1750.0,1759.0,1763.0,1725.0,1754.0,1742.0,2084.0,1358.0,-14.448051452636719,-28.744619369506836,12.574378967285156,Left
2116.73583984375,18213,1,1764.0,1751.0,1737.0,1627.0,1756.0,1738.0,1972.0,1293.0,-14.448051452636719,-28.744619369506836,12.574378967285156,Left
2118.73583984375,18213,1,1757.0,1748.0,1725.0,1471.0,1701.0,1716.0,1919.0,1321.0,-14.448051452636719,-28.744619369506836,12.574378967285156,Left
2120.73583984375,18213,1,1736.0,1766.0,1741.0,1593.0,1756.0,1746.0,1897.0,1363.0,-14.448051452636719,-28.744619369506836,12.574378967285156,Left
2122.73583984375,18213,1,1763.0,1765.0,1748.0,1706.0,1735.0,1775.0,1861.0,1343.0,-14.448051452636719,-28.744619369506836,12.574378967285156,Left
2124.73583984375,18213,1,1763.0,1765.0,1733.0,1853.0,1740.0,1751.0,1819.0,1514.0,-14.448051452636719,-28.744619369506836,12.574378967285156,Left
2128.781005859375,18214,1,1759.0,1749.0,1752.0,1827.0,1751.0,1759.0,1787.0,1593.0,-14.448051452636719,-28.744619369506836,12.574378967285156,Left
2130.781005859375,18214,1,1763.0,1763.0,1771.0,1883.0,1751.0,1797.0,905.0,1447.0,-14.448051452636719,-28.744619369506836,12.574378967285156,Left
2132.781005859375,18214,1,1763.0,1758.0,1779.0,1907.0,1752.0,1770.0,1165.0,1524.0,-14.448051452636719,-28.744619369506836,12.574378967285156,Left
2134.781005859375,18214,1,1762.0,1768.0,1751.0,1805.0,1749.0,1735.0,2149.0,1517.0,-14.448051452636719,-28.744619369506836,12.574378967285156,Left
2136.781005859375,18214,1,1747.0,1767.0,1751.0,1815.0,1743.0,1725.0,2075.0,1545.0,-14.448051452636719,-28.744619369506836,12.574378967285156,Left
2137.908935546875,18215,1,1751.0,1765.0,1751.0,1771.0,1754.0,1735.0,1989.0,1563.0,-14.448051452636719,-28.744619369506836,12.574378967285156,Left
2139.908935546875,18215,1,1768.0,1759.0,1736.0,1659.0,1753.0,1704.0,1940.0,1599.0,-14.448051452636719,-28.744619369506836,12.574378967285156,Left
2141.908935546875,18215,1,1750.0,1765.0,1763.0,1455.0,1753.0,1756.0,1887.0,1439.0,-14.448051452636719,-28.744619369506836,12.574378967285156,Left
2143.908935546875,18215,1,1765.0,1759.0,1757.0,1582.0,1756.0,1769.0,1865.0,1445.0,-14.448051452636719,-28.744619369506836,12.574378967285156,Left
2145.908935546875,18215,1,1763.0,1765.0,1783.0,1782.0,1755.0,1758.0,1832.0,1563.0,-14.448051452636719,-28.744619369506836,12.574378967285156,Left
2147.69189453125,18216,1,1763.0,1749.0,1741.0,1900.0,1751.0,1773.0,1786.0,1802.0,-14.448051452636719,-28.744619369506836,12.574378967285156,Left
2149.69189453125,18216,1,1768.0,1766.0,1709.0,1982.0,1757.0,1769.0,908.0,1559.0,-13.669207572937012,-28.839967727661133,13.502617835998535,Left
2151.69189453125,18216,1,1764.0,1767.0,1799.0,1991.0,1741.0,1741.0,1193.0,1596.0,-13.669207572937012,-28.839967727661133,13.502617835998535,Left
2153.69189453125,18216,1,1763.0,1769.0,1797.0,1860.0,1741.0,1737.0,2152.0,1596.0,-13.669207572937012,-28.839967727661133,13.502617835998535,Left
2155.69189453125,18216,1,1759.0,1764.0,1669.0,1662.0,1752.0,1737.0,2059.0,1567.0,-13.669207572937012,-28.839967727661133,13.502617835998535,Left
2158.299072265625,18217,1,1764.0,1739.0,1835.0,1685.0,1756.0,1762.0,1964.0,1655.0,-13.669207572937012,-28.839967727661133,13.502617835998535,Left
2160.299072265625,18217,1,1763.0,1757.0,1799.0,1619.0,1755.0,1715.0,1941.0,1787.0,-13.669207572937012,-28.839967727661133,13.502617835998535,Left
2162.299072265625,18217,1,1763.0,1765.0,1743.0,1495.0,1751.0,1767.0,1894.0,1700.0,-13.669207572937012,-28.839967727661133,13.502617835998535,Left
2164.299072265625,18217,1,1763.0,1762.0,1749.0,1597.0,1755.0,1738.0,1850.0,1684.0,-13.669207572937012,-28.839967727661133,13.502617835998535,Left
2166.299072265625,18217,1,1757.0,1765.0,1733.0,1677.0,1751.0,1753.0,1823.0,1689.0,-13.669207572937012,-28.839967727661133,13.502617835998535,Left
2167.89892578125,18218,1,1759.0,1765.0,1771.0,1875.0,1752.0,1769.0,1789.0,1749.0,-13.669207572937012,-28.839967727661133,13.502617835998535,Left
2169.89892578125,18218,1,1753.0,1759.0,1766.0,1989.0,1753.0,1781.0,919.0,1701.0,-13.669207572937012,-28.839967727661133,13.502617835998535,Left
2171.89892578125,18218,1,1757.0,1759.0,1735.0,2069.0,1753.0,1764.0,1239.0,1677.0,-13.669207572937012,-28.839967727661133,13.502617835998535,Left
2173.89892578125,18218,1,1767.0,1759.0,1749.0,1947.0,1756.0,1721.0,2141.0,1573.0,-13.669207572937012,-28.839967727661133,13.502617835998535,Left
2175.89892578125,18218,1,1763.0,1766.0,1751.0,1806.0,1752.0,1719.0,2057.0,1565.0,-13.669207572937012,-28.839967727661133,13.502617835998535,Left
2175.22509765625,18219,1,1761.0,1723.0,1770.0,1692.0,1751.0,1712.0,1943.0,1544.0,-13.669207572937012,-28.839967727661133,13.502617835998535,Left
2177.22509765625,18219,1,1763.0,1765.0,1832.0,1531.0,1755.0,1733.0,1915.0,1706.0,-13.669207572937012,-28.839967727661133,13.502617835998535,Left
2179.22509765625,18219,1,1763.0,1757.0,1727.0,1565.0,1753.0,1635.0,1883.0,1663.0,-13.669207572937012,-28.839967727661133,13.502617835998535,Left
2181.22509765625,18219,1,1756.0,1751.0,1695.0,1672.0,1749.0,1720.0,1850.0,1599.0,-13.669207572937012,-28.839967727661133,13.502617835998535,Left
2183.22509765625,18219,1,1759.0,1767.0,1673.0,1722.0,1749.0,1831.0,1823.0,1728.0,-13.669207572937012,-28.839967727661133,13.502617835998535,Left
2187.536865234375,18220,1,1765.0,1767.0,1867.0,1788.0,1739.0,1843.0,1811.0,1675.0,-13.669207572937012,-28.839967727661133,13.502617835998535,Left
2189.536865234375,18220,1,1762.0,1763.0,1828.0,1883.0,1751.0,1787.0,933.0,1469.0,-13.669207572937012,-28.839967727661133,13.502617835998535,Left
2191.536865234375,18220,1,1759.0,1751.0,1711.0,1917.0,1753.0,1721.0,1257.0,1549.0,-13.669207572937012,-28.839967727661133,13.502617835998535,Left
2193.536865234375,18220,1,1763.0,1765.0,1801.0,1895.0,1756.0,1756.0,2131.0,1669.0,-13.669207572937012,-28.839967727661133,13.502617835998535,Left
2195.536865234375,18220,1,1749.0,1765.0,1798.0,1779.0,1755.0,1775.0,2057.0,1597.0,-13.669207572937012,-28.839967727661133,13.502617835998535,Left
2214.035888671875,18221,1,1758.0,1765.0,1678.0,1789.0,1767.0,1673.0,1979.0,1592.0,-13.669207572937012,-28.839967727661133,13.502617835998535,Left
2216.035888671875,18221,1,1762.0,1764.0,1704.0,1644.0,1747.0,1688.0,1930.0,1721.0,-13.669207572937012,-28.839967727661133,13.502617835998535,Left
2218.035888671875,18221,1,1764.0,1765.0,1755.0,1577.0,1755.0,1756.0,1884.0,1673.0,-13.669207572937012,-28.839967727661133,13.502617835998535,Left
2220.035888671875,18221,1,1763.0,1767.0,1741.0,1683.0,1753.0,1707.0,1855.0,1558.0,-13.669207572937012,-28.839967727661133,13.502617835998535,Left
2222.035888671875,18221,1,1762.0,1761.0,1868.0,1708.0,1751.0,1737.0,1832.0,1714.0,-13.669207572937012,-28.839967727661133,13.502617835998535,Left
2214.489990234375,18222,1,1765.0,1725.0,1775.0,1829.0,1752.0,1779.0,1811.0,1863.0,-13.669207572937012,-28.839967727661133,13.502617835998535,Left
2216.489990234375,18222,1,1764.0,1750.0,1651.0,2005.0,1753.0,1800.0,947.0,1773.0,-13.669207572937012,-28.839967727661133,13.502617835998535,Left
2218.489990234375,18222,1,1762.0,1756.0,1710.0,1839.0,1741.0,1691.0,1385.0,1811.0,-13.669207572937012,-28.839967727661133,13.502617835998535,Left
2220.489990234375,18222,1,1749.0,1763.0,1765.0,1789.0,1741.0,1847.0,2137.0,1801.0,-13.669207572937012,-28.839967727661133,13.502617835998535,Left
2222.489990234375,18222,1,1764.0,1758.0,1915.0,1684.0,1755.0,1839.0,2059.0,1689.0,-13.576125144958496,-28.958332061767578,14.437312126159668,Left
2218.53271484375,18223,1,1765.0,1766.0,1479.0,1618.0,1757.0,1683.0,1955.0,1672.0,-13.576125144958496,-28.958332061767578,14.437312126159668,Left
2220.53271484375,18223,1,1763.0,1762.0,1704.0,1593.0,1740.0,1624.0,1915.0,1591.0,-13.576125144958496,-28.958332061767578,14.437312126159668,Left
2222.53271484375,18223,1,1759.0,1764.0,1927.0,1615.0,1757.0,1810.0,1885.0,1562.0,-13.576125144958496,-28.958332061767578,14.437312126159668,Left
2224.53271484375,18223,1,1755.0,1764.0,1862.0,1694.0,1704.0,1787.0,1819.0,1507.0,-13.576125144958496,-28.958332061767578,14.437312126159668,Left
2226.53271484375,18223,1,1759.0,1763.0,1804.0,1837.0,1757.0,1739.0,1831.0,1081.0,-13.576125144958496,-28.958332061767578,14.437312126159668,Left
2232.47900390625,18224,1,1759.0,1767.0,1675.0,1903.0,1737.0,1690.0,1797.0,667.0,-13.576125144958496,-28.958332061767578,14.437312126159668,Left
2234.47900390625,18224,1,1749.0,1768.0,1739.0,1997.0,1740.0,1723.0,925.0,637.0,-13.576125144958496,-28.958332061767578,14.437312126159668,Left
2236.47900390625,18224,1,1758.0,1749.0,1668.0,1981.0,1741.0,1677.0,1297.0,459.0,-13.576125144958496,-28.958332061767578,14.437312126159668,Left
2238.47900390625,18224,1,1749.0,1767.0,1838.0,1803.0,1781.0,1811.0,2139.0,202.0,-13.576125144958496,-28.958332061767578,14.437312126159668,Left
2240.47900390625,18224,1,1765.0,1752.0,1640.0,1689.0,1755.0,1710.0,2056.0,60.0,-13.576125144958496,-28.958332061767578,14.437312126159668,Left
2236.8369140625,18225,1,1747.0,1706.0,1629.0,1660.0,1739.0,1737.0,1959.0,0.0,-13.576125144958496,-28.958332061767578,14.437312126159668,Left
2238.8369140625,18225,1,1763.0,1748.0,1861.0,1432.0,1751.0,1787.0,1930.0,0.0,-13.576125144958496,-28.958332061767578,14.437312126159668,Left
2240.8369140625,18225,1,1757.0,1763.0,2103.0,1485.0,1756.0,1915.0,1864.0,0.0,-13.576125144958496,-28.958332061767578,14.437312126159668,Left
2242.8369140625,18225,1,1763.0,1759.0,1679.0,1604.0,1749.0,1751.0,1849.0,0.0,-13.576125144958496,-28.958332061767578,14.437312126159668,Left
2244.8369140625,18225,1,1763.0,1751.0,1756.0,1791.0,1755.0,1707.0,1831.0,122.0,-13.576125144958496,-28.958332061767578,14.437312126159668,Left
2257.344970703125,18226,1,1759.0,1741.0,1813.0,1881.0,1756.0,1743.0,1771.0,333.0,-13.576125144958496,-28.958332061767578,14.437312126159668,Left
2259.344970703125,18226,1,1763.0,1765.0,1702.0,1957.0,1756.0,1723.0,938.0,729.0,-13.576125144958496,-28.958332061767578,14.437312126159668,Left
2261.344970703125,18226,1,1765.0,1759.0,1852.0,1981.0,1741.0,1755.0,1297.0,713.0,-13.576125144958496,-28.958332061767578,14.437312126159668,Left
2263.344970703125,18226,1,1763.0,1765.0,1617.0,1963.0,1737.0,1726.0,2140.0,711.0,-13.576125144958496,-28.958332061767578,14.437312126159668,Left
2265.344970703125,18226,1,1766.0,1767.0,1772.0,1773.0,1751.0,1787.0,2059.0,785.0,-13.576125144958496,-28.958332061767578,14.437312126159668,Left
2258.02294921875,18227,1,1764.0,1765.0,1834.0,1685.0,1753.0,1743.0,1982.0,871.0,-13.576125144958496,-28.958332061767578,14.437312126159668,Left
2260.02294921875,18227,1,1765.0,1752.0,1789.0,1643.0,1753.0,1679.0,1929.0,725.0,-13.576125144958496,-28.958332061767578,14.437312126159668,Left
2262.02294921875,18227,1,1757.0,1749.0,1623.0,1491.0,1741.0,1704.0,1885.0,779.0,-13.576125144958496,-28.958332061767578,14.437312126159668,Left
2264.02294921875,18227,1,1765.0,1765.0,1853.0,1634.0,1751.0,1708.0,1849.0,1003.0,-13.576125144958496,-28.958332061767578,14.437312126159668,Left
2266.02294921875,18227,1,1767.0,1759.0,1867.0,1755.0,1751.0,1820.0,1829.0,1159.0,-13.576125144958496,-28.958332061767578,14.437312126159668,Left
2267.783935546875,18228,1,1767.0,1765.0,1767.0,1896.0,1753.0,1662.0,1788.0,2791.0,-13.576125144958496,-28.958332061767578,14.437312126159668,Left
2269.783935546875,18228,1,1761.0,1767.0,1693.0,2245.0,1734.0,1854.0,952.0,3801.0,-13.576125144958496,-28.958332061767578,14.437312126159668,Left
2271.783935546875,18228,1,1757.0,1749.0,1815.0,1928.0,1741.0,1843.0,1271.0,3801.0,-13.576125144958496,-28.958332061767578,14.437312126159668,Left
2273.783935546875,18228,1,1765.0,1757.0,1709.0,1853.0,1753.0,1767.0,2141.0,3801.0,-13.576125144958496,-28.958332061767578,14.437312126159668,Left
2275.783935546875,18228,1,1750.0,1767.0,1733.0,1704.0,1741.0,1844.0,2065.0,3789.0,-13.576125144958496,-28.958332061767578,14.437312126159668,Left
2279.78173828125,18229,1,1757.0,1766.0,1782.0,1691.0,1739.0,1677.0,1978.0,3783.0,-13.576125144958496,-28.958332061767578,14.437312126159668,Left
2281.78173828125,18229,1,1749.0,1757.0,1596.0,1639.0,1752.0,1507.0,1939.0,3784.0,-12.161352157592773,-29.67365837097168,15.519620895385742,Left
2283.78173828125,18229,1,1756.0,1749.0,1867.0,1596.0,1755.0,1755.0,1892.0,3812.0,-12.161352157592773,-29.67365837097168,15.519620895385742,Left
2285.78173828125,18229,1,1763.0,1767.0,2139.0,1659.0,1757.0,2013.0,1845.0,3811.0,-12.161352157592773,-29.67365837097168,15.519620895385742,Left
2287.78173828125,18229,1,1763.0,1751.0,1458.0,1779.0,1755.0,1787.0,1759.0,3815.0,-12.161352157592773,-29.67365837097168,15.519620895385742,Left
2287.790771484375,18230,1,1763.0,1764.0,1673.0,1799.0,1755.0,1571.0,1813.0,3653.0,-12.161352157592773,-29.67365837097168,15.519620895385742,Left
2289.790771484375,18230,1,1709.0,1769.0,1524.0,1957.0,1753.0,1725.0,971.0,2921.0,-12.161352157592773,-29.67365837097168,15.519620895385742,Left
2291.790771484375,18230,1,1755.0,1737.0,1837.0,1929.0,1715.0,1877.0,1257.0,2396.0,-12.161352157592773,-29.67365837097168,15.519620895385742,Left
2293.790771484375,18230,1,1759.0,1767.0,2063.0,1891.0,1755.0,1877.0,2158.0,1997.0,-12.161352157592773,-29.67365837097168,15.519620895385742,Left
2295.790771484375,18230,1,1765.0,1767.0,1631.0,1711.0,1753.0,1596.0,2089.0,1727.0,-12.161352157592773,-29.67365837097168,15.519620895385742,Left
2304.64794921875,18231,1,1749.0,1736.0,2453.0,1733.0,1738.0,1821.0,1972.0,1609.0,-12.161352157592773,-29.67365837097168,15.519620895385742,Left
2306.64794921875,18231,1,1752.0,1693.0,1531.0,1465.0,1718.0,1807.0,1955.0,1486.0,-12.161352157592773,-29.67365837097168,15.519620895385742,Left
2308.64794921875,18231,1,1761.0,1751.0,1125.0,1527.0,1747.0,1767.0,1903.0,1259.0,-12.161352157592773,-29.67365837097168,15.519620895385742,Left
2310.64794921875,18231,1,1762.0,1767.0,1597.0,1692.0,1758.0,1758.0,1755.0,1060.0,-12.161352157592773,-29.67365837097168,15.519620895385742,Left
2312.64794921875,18231,1,1759.0,1765.0,1685.0,1719.0,1757.0,1611.0,1572.0,1111.0,-12.161352157592773,-29.67365837097168,15.519620895385742,Left
2310.403076171875,18232,1,1763.0,1765.0,2536.0,1836.0,1751.0,1952.0,1685.0,1227.0,-12.161352157592773,-29.67365837097168,15.519620895385742,Left
2312.403076171875,18232,1,1719.0,1733.0,2058.0,1947.0,1739.0,1950.0,1033.0,1144.0,-12.161352157592773,-29.67365837097168,15.519620895385742,Left
2314.403076171875,18232,1,1739.0,1767.0,2280.0,1972.0,1751.0,1741.0,1181.0,1165.0,-12.161352157592773,-29.67365837097168,15.519620895385742,Left
2316.403076171875,18232,1,1763.0,1763.0,1532.0,1963.0,1755.0,1660.0,1945.0,1224.0,-12.161352157592773,-29.67365837097168,15.519620895385742,Left
2318.403076171875,18232,1,1765.0,1765.0,1149.0,1755.0,1755.0,1800.0,2275.0,1421.0,-12.161352157592773,-29.67365837097168,15.519620895385742,Left
2318.275146484375,18233,1,1765.0,1764.0,1737.0,1610.0,1751.0,1727.0,2151.0,1495.0,-12.161352157592773,-29.67365837097168,15.519620895385742,Left
2320.275146484375,18233,1,1753.0,1766.0,1909.0,1545.0,1753.0,1693.0,2057.0,1670.0,-12.161352157592773,-29.67365837097168,15.519620895385742,Left
2322.275146484375,18233,1,1761.0,1757.0,1583.0,1623.0,1757.0,1423.0,1909.0,1613.0,-12.161352157592773,-29.67365837097168,15.519620895385742,Left
2324.275146484375,18233,1,1763.0,1763.0,2025.0,1709.0,1749.0,1647.0,1003.0,1657.0,-12.161352157592773,-29.67365837097168,15.519620895385742,Left
2326.275146484375,18233,1,1748.0,1763.0,1835.0,1735.0,1743.0,1884.0,1056.0,1703.0,-12.161352157592773,-29.67365837097168,15.519620895385742,Left
2333.529052734375,18234,1,1764.0,1764.0,1568.0,1853.0,1743.0,1613.0,1163.0,1605.0,-12.161352157592773,-29.67365837097168,15.519620895385742,Left
2335.529052734375,18234,1,1761.0,1765.0,1510.0,1972.0,1755.0,1810.0,1170.0,1515.0,-12.161352157592773,-29.67365837097168,15.519620895385742,Left
2337.529052734375,18234,1,1760.0,1766.0,2389.0,1960.0,1755.0,1992.0,1233.0,1631.0,-12.161352157592773,-29.67365837097168,15.519620895385742,Left
2339.529052734375,18234,1,1753.0,1766.0,1471.0,1959.0,1763.0,1671.0,1357.0,1527.0,-12.161352157592773,-29.67365837097168,15.519620895385742,Left
2341.529052734375,18234,1,1763.0,1768.0,914.0,1617.0,1755.0,1749.0,1415.0,1581.0,-12.161352157592773,-29.67365837097168,15.519620895385742,Left
2336.800048828125,18235,1,1763.0,1763.0,2343.0,1592.0,1752.0,1933.0,1447.0,1801.0,-12.161352157592773,-29.67365837097168,15.519620895385742,Left
2338.800048828125,18235,1,1753.0,1764.0,2699.0,1531.0,1755.0,1838.0,2487.0,1692.0,-12.161352157592773,-29.67365837097168,15.519620895385742,Left
2340.800048828125,18235,1,1763.0,1757.0,2005.0,1532.0,1755.0,1478.0,1373.0,1491.0,-12.161352157592773,-29.67365837097168,15.519620895385742,Left
2342.800048828125,18235,1,1751.0,1763.0,555.0,1703.0,1752.0,1619.0,1352.0,1555.0,-6.52414083480835,-31.026891708374023,14.655301094055176,Left
2344.800048828125,18235,1,1753.0,1767.0,1701.0,1835.0,1759.0,2167.0,1349.0,1593.0,-6.52414083480835,-31.026891708374023,14.655301094055176,Left
2351.4541015625,18236,1,1749.0,1767.0,1814.0,1883.0,1740.0,1441.0,1387.0,1717.0,-6.52414083480835,-31.026891708374023,14.655301094055176,Left
2353.4541015625,18236,1,1736.0,1772.0,1010.0,2039.0,1741.0,1754.0,1291.0,1785.0,-6.52414083480835,-31.026891708374023,14.655301094055176,Left
2355.4541015625,18236,1,1763.0,1759.0,2239.0,1951.0,1757.0,1720.0,1318.0,1725.0,-6.52414083480835,-31.026891708374023,14.655301094055176,Left
2357.4541015625,18236,1,1747.0,1749.0,1866.0,1816.0,1743.0,1853.0,1379.0,1815.0,-6.52414083480835,-31.026891708374023,14.655301094055176,Left
2359.4541015625,18236,1,1749.0,1765.0,2108.0,1725.0,1739.0,1433.0,1446.0,1977.0,-6.52414083480835,-31.026891708374023,14.655301094055176,Left
2359.68798828125,18237,1,1757.0,1745.0,1571.0,1703.0,1756.0,1991.0,1479.0,1884.0,-6.52414083480835,-31.026891708374023,14.655301094055176,Left
2361.68798828125,18237,1,1746.0,1750.0,2533.0,1612.0,1741.0,3795.0,3095.0,1756.0,-6.52414083480835,-31.026891708374023,14.655301094055176,Left
2363.68798828125,18237,1,1765.0,1767.0,1850.0,1382.0,1755.0,3795.0,2023.0,1829.0,-6.52414083480835,-31.026891708374023,14.655301094055176,Left
2365.68798828125,18237,1,1749.0,1723.0,767.0,1404.0,1752.0,3800.0,1208.0,1700.0,-6.52414083480835,-31.026891708374023,14.655301094055176,Left
2367.68798828125,18237,1,1763.0,1766.0,2125.0,1669.0,1752.0,2698.0,1273.0,1453.0,-6.52414083480835,-31.026891708374023,14.655301094055176,Left
2366.697021484375,18238,1,1747.0,1757.0,1307.0,1816.0,1741.0,1835.0,1301.0,1607.0,-6.52414083480835,-31.026891708374023,14.655301094055176,Left
2368.697021484375,18238,1,1765.0,1762.0,2473.0,2037.0,1741.0,0.0,1251.0,1691.0,-6.52414083480835,-31.026891708374023,14.655301094055176,Left
2370.697021484375,18238,1,1749.0,1725.0,2148.0,1979.0,1745.0,283.0,1321.0,1838.0,-6.52414083480835,-31.026891708374023,14.655301094055176,Left
2372.697021484375,18238,1,1752.0,1763.0,1017.0,1981.0,1751.0,1496.0,1406.0,1852.0,-6.52414083480835,-31.026891708374023,14.655301094055176,Left
2374.697021484375,18238,1,1757.0,1765.0,2251.0,1831.0,1742.0,1973.0,1480.0,1672.0,-6.52414083480835,-31.026891708374023,14.655301094055176,Left
2379.30615234375,18239,1,1753.0,1755.0,1087.0,1753.0,1741.0,2489.0,1525.0,1767.0,-6.52414083480835,-31.026891708374023,14.655301094055176,Left
2381.30615234375,18239,1,1739.0,1767.0,2352.0,1701.0,1757.0,3765.0,3689.0,1967.0,-6.52414083480835,-31.026891708374023,14.655301094055176,Left
2383.30615234375,18239,1,1749.0,1750.0,1324.0,1655.0,1752.0,3785.0,2501.0,1851.0,-6.52414083480835,-31.026891708374023,14.655301094055176,Left
2385.30615234375,18239,1,1763.0,1765.0,2155.0,1741.0,1755.0,1449.0,1063.0,1932.0,-6.52414083480835,-31.026891708374023,14.655301094055176,Left
2387.30615234375,18239,1,1756.0,1767.0,2292.0,1787.0,1756.0,217.0,1151.0,1765.0,-6.52414083480835,-31.026891708374023,14.655301094055176,Left
2386.431884765625,18240,1,1759.0,1751.0,1479.0,1739.0,1739.0,639.0,1204.0,1589.0,-6.52414083480835,-31.026891708374023,14.655301094055176,Left
2388.431884765625,18240,1,1757.0,1765.0,1198.0,1884.0,1755.0,0.0,1207.0,1659.0,-6.52414083480835,-31.026891708374023,14.655301094055176,Left
2390.431884765625,18240,1,1749.0,1763.0,1673.0,1867.0,1739.0,0.0,1289.0,1615.0,-6.52414083480835,-31.026891708374023,14.655301094055176,Left
2392.431884765625,18240,1,1763.0,1767.0,1981.0,1727.0,1741.0,1278.0,1397.0,1611.0,-6.52414083480835,-31.026891708374023,14.655301094055176,Left
2394.431884765625,18240,1,1759.0,1763.0,1253.0,1682.0,1751.0,2346.0,1469.0,1469.0,-6.52414083480835,-31.026891708374023,14.655301094055176,Left
2398.4521484375,18241,1,1762.0,1763.0,2151.0,1613.0,1742.0,2730.0,1557.0,1605.0,-6.52414083480835,-31.026891708374023,14.655301094055176,Left
2400.4521484375,18241,1,1751.0,1763.0,1659.0,1429.0,1753.0,3784.0,3831.0,1619.0,-6.52414083480835,-31.026891708374023,14.655301094055176,Left
2402.4521484375,18241,1,1762.0,1751.0,2381.0,1591.0,1738.0,3783.0,3091.0,1653.0,-6.52414083480835,-31.026891708374023,14.655301094055176,Left
2404.4521484375,18241,1,1750.0,1767.0,823.0,1606.0,1755.0,2812.0,1563.0,1638.0,-6.52414083480835,-31.026891708374023,14.655301094055176,Left
2406.4521484375,18241,1,1755.0,1749.0,1692.0,1846.0,1757.0,1861.0,939.0,1431.0,-6.52414083480835,-31.026891708374023,14.655301094055176,Left
2414.105224609375,18242,1,1759.0,1721.0,1993.0,1831.0,1750.0,1455.0,1061.0,1669.0,-6.52414083480835,-31.026891708374023,14.655301094055176,Left
2416.105224609375,18242,1,1763.0,1769.0,1128.0,2099.0,1757.0,0.0,1084.0,1515.0,0.8833667635917664,-32.712196350097656,9.45447063446045,Left
2418.105224609375,18242,1,1767.0,1757.0,1881.0,1995.0,1741.0,35.0,1194.0,1641.0,0.8833667635917664,-32.712196350097656,9.45447063446045,Left
2420.105224609375,18242,1,1763.0,1750.0,2461.0,1813.0,1741.0,1301.0,1318.0,1768.0,0.8833667635917664,-32.712196350097656,9.45447063446045,Left
2422.105224609375,18242,1,1750.0,1767.0,1639.0,1677.0,1751.0,1835.0,1420.0,1797.0,0.8833667635917664,-32.712196350097656,9.45447063446045,Left
2414.5009765625,18243,1,1765.0,1765.0,1975.0,1657.0,1757.0,1757.0,1560.0,1802.0,0.8833667635917664,-32.712196350097656,9.45447063446045,Left
2416.5009765625,18243,1,1750.0,1757.0,1453.0,1607.0,1741.0,3005.0,3845.0,2041.0,0.8833667635917664,-32.712196350097656,9.45447063446045,Left
2418.5009765625,18243,1,1765.0,1767.0,1845.0,1459.0,1757.0,763.0,2746.0,1852.0,0.8833667635917664,-32.712196350097656,9.45447063446045,Left
2420.5009765625,18243,1,1741.0,1721.0,1663.0,1711.0,1756.0,0.0,1253.0,1885.0,0.8833667635917664,-32.712196350097656,9.45447063446045,Left
2422.5009765625,18243,1,1749.0,1769.0,1719.0,1813.0,1755.0,0.0,1001.0,1895.0,0.8833667635917664,-32.712196350097656,9.45447063446045,Left
2428.64990234375,18244,1,1762.0,1751.0,1831.0,1807.0,1739.0,0.0,1131.0,1901.0,0.8833667635917664,-32.712196350097656,9.45447063446045,Left
2430.64990234375,18244,1,1763.0,1767.0,2019.0,1907.0,1750.0,0.0,1126.0,1844.0,0.8833667635917664,-32.712196350097656,9.45447063446045,Left
2432.64990234375,18244,1,1763.0,1767.0,1607.0,1899.0,1755.0,0.0,1233.0,1909.0,0.8833667635917664,-32.712196350097656,9.45447063446045,Left
2434.64990234375,18244,1,1763.0,1751.0,1391.0,1757.0,1754.0,1339.0,1369.0,1365.0,0.8833667635917664,-32.712196350097656,9.45447063446045,Left
2436.64990234375,18244,1,1763.0,1763.0,1809.0,1749.0,1752.0,2740.0,1459.0,827.0,0.8833667635917664,-32.712196350097656,9.45447063446045,Left
2435.830078125,18245,1,1762.0,1763.0,1839.0,1705.0,1770.0,3595.0,1967.0,395.0,0.8833667635917664,-32.712196350097656,9.45447063446045,Left
2437.830078125,18245,1,1767.0,1751.0,2451.0,1789.0,1755.0,3787.0,3819.0,37.0,0.8833667635917664,-32.712196350097656,9.45447063446045,Left
2439.830078125,18245,1,1763.0,1765.0,1623.0,1661.0,1757.0,3795.0,3834.0,41.0,0.8833667635917664,-32.712196350097656,9.45447063446045,Left
2441.830078125,18245,1,1763.0,1767.0,2029.0,1787.0,1741.0,3769.0,3077.0,147.0,0.8833667635917664,-32.712196350097656,9.45447063446045,Left
2443.830078125,18245,1,1767.0,1750.0,2367.0,1853.0,1752.0,3367.0,2207.0,163.0,0.8833667635917664,-32.712196350097656,9.45447063446045,Left
2445.23193359375,18246,1,1764.0,1741.0,1054.0,1775.0,1750.0,2443.0,1671.0,185.0,0.8833667635917664,-32.712196350097656,9.45447063446045,Left
2447.23193359375,18246,1,1767.0,1755.0,1711.0,1979.0,1755.0,185.0,309.0,420.0,0.8833667635917664,-32.712196350097656,9.45447063446045,Left
2449.23193359375,18246,1,1757.0,1763.0,969.0,1914.0,1752.0,277.0,613.0,409.0,0.8833667635917664,-32.712196350097656,9.45447063446045,Left
2451.23193359375,18246,1,1766.0,1768.0,2713.0,1739.0,1753.0,1127.0,1717.0,315.0,0.8833667635917664,-32.712196350097656,9.45447063446045,Left
2453.23193359375,18246,1,1759.0,1763.0,2183.0,1651.0,1753.0,1528.0,2430.0,3811.0,0.8833667635917664,-32.712196350097656,9.45447063446045,Left
2454.981689453125,18247,1,1765.0,1763.0,2299.0,1657.0,1739.0,1301.0,3064.0,3811.0,0.8833667635917664,-32.712196350097656,9.45447063446045,Left
2456.981689453125,18247,1,1763.0,1756.0,1625.0,1619.0,1755.0,2972.0,3816.0,3811.0,0.8833667635917664,-32.712196350097656,9.45447063446045,Left
2458.981689453125,18247,1,1763.0,1749.0,1373.0,1655.0,1751.0,1752.0,3847.0,3801.0,0.8833667635917664,-32.712196350097656,9.45447063446045,Left
2460.981689453125,18247,1,1759.0,1768.0,1517.0,1740.0,1755.0,0.0,2729.0,3811.0,0.8833667635917664,-32.712196350097656,9.45447063446045,Left
2462.981689453125,18247,1,1752.0,1749.0,1747.0,1877.0,1756.0,0.0,1829.0,3813.0,0.8833667635917664,-32.712196350097656,9.45447063446045,Left
2466.89892578125,18248,1,1758.0,1748.0,1291.0,1971.0,1753.0,0.0,1213.0,3199.0,0.8833667635917664,-32.712196350097656,9.45447063446045,Left
2468.89892578125,18248,1,1759.0,1768.0,1875.0,1897.0,1756.0,0.0,0.0,2957.0,0.8833667635917664,-32.712196350097656,9.45447063446045,Left
2470.89892578125,18248,1,1763.0,1759.0,2217.0,1947.0,1753.0,0.0,30.0,2395.0,0.8833667635917664,-32.712196350097656,9.45447063446045,Left
2472.89892578125,18248,1,1752.0,1765.0,1033.0,1835.0,1753.0,152.0,1083.0,2069.0,-4.765114784240723,-32.52864074707031,15.837217330932617,Left
2474.89892578125,18248,1,1761.0,1749.0,1848.0,1659.0,1743.0,1895.0,1606.0,2031.0,-4.765114784240723,-32.52864074707031,15.837217330932617,Left
2474.77294921875,18249,1,1766.0,1749.0,1875.0,1615.0,1749.0,3087.0,2255.0,1947.0,-4.765114784240723,-32.52864074707031,15.837217330932617,Left
2476.77294921875,18249,1,1764.0,1757.0,2085.0,1581.0,1755.0,3788.0,3819.0,1940.0,-4.765114784240723,-32.52864074707031,15.837217330932617,Left
2478.77294921875,18249,1,1763.0,1767.0,1746.0,1561.0,1753.0,3766.0,3835.0,1913.0,-4.765114784240723,-32.52864074707031,15.837217330932617,Left
2480.77294921875,18249,1,1759.0,1765.0,1949.0,1621.0,1755.0,3785.0,2229.0,1733.0,-4.765114784240723,-32.52864074707031,15.837217330932617,Left
2482.77294921875,18249,1,1763.0,1762.0,1477.0,1894.0,1753.0,3784.0,1351.0,1701.0,-4.765114784240723,-32.52864074707031,15.837217330932617,Left
2491.7109375,18250,1,1749.0,1752.0,1692.0,1799.0,1749.0,2791.0,496.0,1555.0,-4.765114784240723,-32.52864074707031,15.837217330932617,Left
2493.7109375,18250,1,1767.0,1766.0,1644.0,1855.0,1752.0,237.0,0.0,1563.0,-4.765114784240723,-32.52864074707031,15.837217330932617,Left
2495.7109375,18250,1,1751.0,1765.0,1877.0,1832.0,1754.0,421.0,311.0,1507.0,-4.765114784240723,-32.52864074707031,15.837217330932617,Left
2497.7109375,18250,1,1757.0,1765.0,1548.0,1829.0,1758.0,1583.0,1110.0,1631.0,-4.765114784240723,-32.52864074707031,15.837217330932617,Left
2499.7109375,18250,1,1763.0,1749.0,1529.0,1723.0,1756.0,2263.0,1615.0,1689.0,-4.765114784240723,-32.52864074707031,15.837217330932617,Left
2495.114013671875,18251,1,1763.0,1771.0,2335.0,1687.0,1755.0,2759.0,2299.0,1696.0,-4.765114784240723,-32.52864074707031,15.837217330932617,Left
2497.114013671875,18251,1,1762.0,1743.0,1567.0,1491.0,1755.0,3767.0,3845.0,1716.0,-4.765114784240723,-32.52864074707031,15.837217330932617,Left
2499.114013671875,18251,1,1753.0,1767.0,1981.0,1547.0,1740.0,2466.0,3837.0,1727.0,-4.765114784240723,-32.52864074707031,15.837217330932617,Left
2501.114013671875,18251,1,1764.0,1766.0,1478.0,1779.0,1749.0,1449.0,1843.0,1365.0,-4.765114784240723,-32.52864074707031,15.837217330932617,Left
2503.114013671875,18251,1,1747.0,1751.0,2712.0,1869.0,1739.0,1139.0,0.0,1262.0,-4.765114784240723,-32.52864074707031,15.837217330932617,Left
2504.864990234375,18252,1,1755.0,1769.0,1576.0,1737.0,1812.0,1311.0,182.0,1561.0,-4.765114784240723,-32.52864074707031,15.837217330932617,Left
2506.864990234375,18252,1,1763.0,1759.0,1503.0,1885.0,1758.0,0.0,382.0,1509.0,-4.765114784240723,-32.52864074707031,15.837217330932617,Left
2508.864990234375,18252,1,1751.0,1765.0,1919.0,1853.0,1739.0,639.0,683.0,1607.0,-4.765114784240723,-32.52864074707031,15.837217330932617,Left
2510.864990234375,18252,1,1749.0,1767.0,1175.0,1767.0,1751.0,1779.0,1499.0,1572.0,-4.765114784240723,-32.52864074707031,15.837217330932617,Left
2512.864990234375,18252,1,1755.0,1767.0,2105.0,1689.0,1757.0,2303.0,1765.0,1499.0,-4.765114784240723,-32.52864074707031,15.837217330932617,Left
2516.908203125,18253,1,1764.0,1770.0,1586.0,1565.0,1751.0,2619.0,2616.0,1579.0,-4.765114784240723,-32.52864074707031,15.837217330932617,Left
2518.908203125,18253,1,1763.0,1766.0,1840.0,1507.0,1754.0,3785.0,3847.0,1622.0,-4.765114784240723,-32.52864074707031,15.837217330932617,Left
2520.908203125,18253,1,1763.0,1765.0,1624.0,1507.0,1757.0,3771.0,3839.0,1463.0,-4.765114784240723,-32.52864074707031,15.837217330932617,Left
2522.908203125,18253,1,1765.0,1767.0,1991.0,1673.0,1751.0,2781.0,2995.0,1614.0,-4.765114784240723,-32.52864074707031,15.837217330932617,Left
2524.908203125,18253,1,1765.0,1764.0,1451.0,1813.0,1753.0,1597.0,2139.0,1839.0,-4.765114784240723,-32.52864074707031,15.837217330932617,Left
2527.116943359375,18254,1,1765.0,1757.0,2549.0,1827.0,1752.0,853.0,1305.0,1789.0,-4.765114784240723,-32.52864074707031,15.837217330932617,Left
2529.116943359375,18254,1,1759.0,1762.0,1207.0,1934.0,1753.0,0.0,0.0,1767.0,-4.765114784240723,-32.52864074707031,15.837217330932617,Left
2531.116943359375,18254,1,1755.0,1763.0,1700.0,1901.0,1741.0,0.0,265.0,1723.0,-4.765114784240723,-32.52864074707031,15.837217330932617,Left
2533.116943359375,18254,1,1763.0,1765.0,1645.0,1818.0,1754.0,1181.0,1487.0,1767.0,-4.765114784240723,-32.52864074707031,15.837217330932617,Left
2535.116943359375,18254,1,1755.0,1751.0,2019.0,1802.0,1753.0,1831.0,2191.0,1757.0,-4.765114784240723,-32.52864074707031,15.837217330932617,Left
2538.197998046875,18255,1,1764.0,1762.0,1976.0,1635.0,1752.0,2633.0,3191.0,1893.0,-4.765114784240723,-32.52864074707031,15.837217330932617,Left
2540.197998046875,18255,1,1767.0,1766.0,1485.0,1589.0,1741.0,3795.0,3817.0,1959.0,8.662097930908203,-28.409042358398438,17.03498649597168,Left
2542.197998046875,18255,1,1750.0,1768.0,1036.0,1583.0,1754.0,3368.0,3847.0,1971.0,8.662097930908203,-28.409042358398438,17.03498649597168,Left
2544.197998046875,18255,1,1757.0,1764.0,2735.0,1736.0,1754.0,2088.0,2647.0,1717.0,8.662097930908203,-28.409042358398438,17.03498649597168,Left
2546.197998046875,18255,1,1761.0,1767.0,1631.0,1707.0,1755.0,1188.0,1951.0,1747.0,8.662097930908203,-28.409042358398438,17.03498649597168,Left
2546.316162109375,18256,1,1757.0,1759.0,1463.0,1684.0,1755.0,858.0,1145.0,1711.0,8.662097930908203,-28.409042358398438,17.03498649597168,Left
2548.316162109375,18256,1,1765.0,1762.0,2100.0,1918.0,1755.0,0.0,0.0,1752.0,8.662097930908203,-28.409042358398438,17.03498649597168,Left
2550.316162109375,18256,1,1757.0,1759.0,1750.0,1967.0,1754.0,0.0,59.0,1785.0,8.662097930908203,-28.409042358398438,17.03498649597168,Left
2552.316162109375,18256,1,1763.0,1766.0,1847.0,1881.0,1739.0,1555.0,1380.0,1640.0,8.662097930908203,-28.409042358398438,17.03498649597168,Left
2554.316162109375,18256,1,1765.0,1758.0,1621.0,1701.0,1757.0,2187.0,2053.0,1531.0,8.662097930908203,-28.409042358398438,17.03498649597168,Left
2557.280029296875,18257,1,1756.0,1763.0,1785.0,1715.0,1757.0,2783.0,3293.0,1505.0,8.662097930908203,-28.409042358398438,17.03498649597168,Left
2559.280029296875,18257,1,1763.0,1766.0,1627.0,1555.0,1755.0,3788.0,3836.0,1493.0,8.662097930908203,-28.409042358398438,17.03498649597168,Left
2561.280029296875,18257,1,1763.0,1765.0,1567.0,1721.0,1755.0,3797.0,3623.0,1542.0,8.662097930908203,-28.409042358398438,17.03498649597168,Left
2563.280029296875,18257,1,1763.0,1763.0,1788.0,1790.0,1757.0,2234.0,2381.0,1578.0,8.662097930908203,-28.409042358398438,17.03498649597168,Left
2565.280029296875,18257,1,1759.0,1763.0,1960.0,1847.0,1756.0,1675.0,1868.0,1723.0,8.662097930908203,-28.409042358398438,17.03498649597168,Left
2566.84716796875,18258,1,1764.0,1749.0,1917.0,1740.0,1757.0,1387.0,936.0,1801.0,8.662097930908203,-28.409042358398438,17.03498649597168,Left
2568.84716796875,18258,1,1748.0,1763.0,1741.0,1979.0,1751.0,0.0,0.0,1607.0,8.662097930908203,-28.409042358398438,17.03498649597168,Left
2570.84716796875,18258,1,1765.0,1759.0,1332.0,1896.0,1752.0,494.0,74.0,1747.0,8.662097930908203,-28.409042358398438,17.03498649597168,Left
2572.84716796875,18258,1,1750.0,1764.0,1763.0,1899.0,1757.0,1621.0,1501.0,1914.0,8.662097930908203,-28.409042358398438,17.03498649597168,Left
2574.84716796875,18258,1,1765.0,1765.0,1877.0,1727.0,1741.0,1906.0,2277.0,1787.0,8.662097930908203,-28.409042358398438,17.03498649597168,Left
2575.0400390625,18259,1,1759.0,1739.0,1690.0,1711.0,1751.0,2130.0,3593.0,1781.0,8.662097930908203,-28.409042358398438,17.03498649597168,Left
2577.0400390625,18259,1,1749.0,1765.0,2375.0,1491.0,1755.0,3771.0,3844.0,1831.0,8.662097930908203,-28.409042358398438,17.03498649597168,Left
2579.0400390625,18259,1,1765.0,1764.0,1763.0,1519.0,1755.0,2890.0,3218.0,1691.0,8.662097930908203,-28.409042358398438,17.03498649597168,Left
2581.0400390625,18259,1,1767.0,1749.0,1209.0,1573.0,1753.0,1819.0,2251.0,1803.0,8.662097930908203,-28.409042358398438,17.03498649597168,Left
2583.0400390625,18259,1,1765.0,1749.0,1620.0,1695.0,1757.0,1363.0,1867.0,1894.0,8.662097930908203,-28.409042358398438,17.03498649597168,Left
2586.60693359375,18260,1,1758.0,1759.0,1553.0,1727.0,1757.0,1055.0,943.0,1675.0,8.662097930908203,-28.409042358398438,17.03498649597168,Left
2588.60693359375,18260,1,1763.0,1765.0,1763.0,1981.0,1758.0,0.0,0.0,1689.0,8.662097930908203,-28.409042358398438,17.03498649597168,Left
2590.60693359375,18260,1,1765.0,1767.0,2385.0,1853.0,1751.0,155.0,0.0,1915.0,8.662097930908203,-28.409042358398438,17.03498649597168,Left
2592.60693359375,18260,1,1754.0,1766.0,937.0,1773.0,1742.0,862.0,1438.0,1997.0,8.662097930908203,-28.409042358398438,17.03498649597168,Left
2594.60693359375,18260,1,1765.0,1763.0,1967.0,1721.0,1752.0,1163.0,2215.0,1807.0,8.662097930908203,-28.409042358398438,17.03498649597168,Left
2595.47900390625,18261,1,1763.0,1763.0,2231.0,1739.0,1749.0,2195.0,3601.0,1833.0,8.662097930908203,-28.409042358398438,17.03498649597168,Left
2597.47900390625,18261,1,1764.0,1759.0,2055.0,1561.0,1751.0,3764.0,3445.0,1711.0,8.662097930908203,-28.409042358398438,17.03498649597168,Left
2599.47900390625,18261,1,1759.0,1766.0,1421.0,1636.0,1752.0,2955.0,3014.0,1695.0,8.662097930908203,-28.409042358398438,17.03498649597168,Left
2601.47900390625,18261,1,1764.0,1767.0,1167.0,1738.0,1757.0,1927.0,2229.0,1787.0,8.662097930908203,-28.409042358398438,17.03498649597168,Left
2603.47900390625,18261,1,1753.0,1765.0,2539.0,1711.0,1755.0,1130.0,1797.0,1679.0,4.09609842300415,-29.341751098632812,18.48219108581543,Left
2613.413818359375,18262,1,1747.0,1753.0,1336.0,1823.0,1739.0,714.0,943.0,1692.0,4.09609842300415,-29.341751098632812,18.48219108581543,Left
2615.413818359375,18262,1,1766.0,1750.0,2297.0,2019.0,1752.0,0.0,0.0,1817.0,4.09609842300415,-29.341751098632812,18.48219108581543,Left
2617.413818359375,18262,1,1763.0,1755.0,1140.0,1848.0,1755.0,234.0,25.0,1719.0,4.09609842300415,-29.341751098632812,18.48219108581543,Left
2619.413818359375,18262,1,1758.0,1763.0,2004.0,1775.0,1751.0,1870.0,1481.0,1723.0,4.09609842300415,-29.341751098632812,18.48219108581543,Left
2621.413818359375,18262,1,1751.0,1763.0,1750.0,1701.0,1751.0,2735.0,2202.0,1768.0,4.09609842300415,-29.341751098632812,18.48219108581543,Left
2616.948974609375,18263,1,1755.0,1767.0,1823.0,1787.0,1755.0,3785.0,3491.0,1699.0,4.09609842300415,-29.341751098632812,18.48219108581543,Left
2618.948974609375,18263,1,1746.0,1765.0,1443.0,1597.0,1753.0,3771.0,3278.0,1596.0,4.09609842300415,-29.341751098632812,18.48219108581543,Left
2620.948974609375,18263,1,1748.0,1763.0,2229.0,1639.0,1741.0,3686.0,2841.0,1566.0,4.09609842300415,-29.341751098632812,18.48219108581543,Left
2622.948974609375,18263,1,1749.0,1765.0,2421.0,1709.0,1747.0,2331.0,1934.0,1678.0,4.09609842300415,-29.341751098632812,18.48219108581543,Left
2624.948974609375,18263,1,1767.0,1749.0,1149.0,1861.0,1756.0,1855.0,1593.0,1755.0,4.09609842300415,-29.341751098632812,18.48219108581543,Left
2630.404296875,18264,1,1747.0,1766.0,1861.0,1899.0,1756.0,1437.0,653.0,1639.0,4.09609842300415,-29.341751098632812,18.48219108581543,Left
2632.404296875,18264,1,1755.0,1763.0,1739.0,1993.0,1753.0,179.0,0.0,1679.0,4.09609842300415,-29.341751098632812,18.48219108581543,Left
2634.404296875,18264,1,1755.0,1763.0,1897.0,1864.0,1757.0,1117.0,87.0,1721.0,4.09609842300415,-29.341751098632812,18.48219108581543,Left
2636.404296875,18264,1,1752.0,1759.0,1407.0,1747.0,1755.0,2397.0,1597.0,1799.0,4.09609842300415,-29.341751098632812,18.48219108581543,Left
2638.404296875,18264,1,1759.0,1758.0,1589.0,1639.0,1742.0,2378.0,2235.0,1855.0,4.09609842300415,-29.341751098632812,18.48219108581543,Left
2640.60693359375,18265,1,1747.0,1759.0,1703.0,1657.0,1754.0,2803.0,3531.0,1821.0,4.09609842300415,-29.341751098632812,18.48219108581543,Left
2642.60693359375,18265,1,1758.0,1757.0,1887.0,1557.0,1728.0,3939.0,3379.0,1880.0,4.09609842300415,-29.341751098632812,18.48219108581543,Left
2644.60693359375,18265,1,1753.0,1764.0,1592.0,1643.0,1755.0,2503.0,2913.0,1849.0,4.09609842300415,-29.341751098632812,18.48219108581543,Left
2646.60693359375,18265,1,1763.0,1762.0,1415.0,1755.0,1720.0,1068.0,1995.0,1763.0,4.09609842300415,-29.341751098632812,18.48219108581543,Left
2648.60693359375,18265,1,1757.0,1757.0,1949.0,1800.0,1755.0,439.0,1686.0,1496.0,4.09609842300415,-29.341751098632812,18.48219108581543,Left
2646.171875,18266,1,1761.0,1767.0,1955.0,1798.0,1745.0,248.0,485.0,1629.0,4.09609842300415,-29.341751098632812,18.48219108581543,Left
2648.171875,18266,1,1763.0,1766.0,2119.0,1966.0,1756.0,0.0,0.0,1643.0,4.09609842300415,-29.341751098632812,18.48219108581543,Left
2650.171875,18266,1,1764.0,1765.0,1753.0,1925.0,1751.0,281.0,203.0,1709.0,4.09609842300415,-29.341751098632812,18.48219108581543,Left
2652.171875,18266,1,1763.0,1765.0,1748.0,1833.0,1749.0,1477.0,1513.0,1609.0,4.09609842300415,-29.341751098632812,18.48219108581543,Left
2654.171875,18266,1,1763.0,1763.0,1721.0,1736.0,1741.0,2011.0,2189.0,1519.0,4.09609842300415,-29.341751098632812,18.48219108581543,Left
2658.78515625,18267,1,1763.0,1759.0,1047.0,1679.0,1755.0,2991.0,3821.0,1675.0,4.09609842300415,-29.341751098632812,18.48219108581543,Left
2660.78515625,18267,1,1755.0,1752.0,2269.0,1427.0,1753.0,3785.0,3365.0,1651.0,4.09609842300415,-29.341751098632812,18.48219108581543,Left
2662.78515625,18267,1,1765.0,1765.0,1980.0,1531.0,1741.0,2838.0,2903.0,1686.0,4.09609842300415,-29.341751098632812,18.48219108581543,Left
2664.78515625,18267,1,1749.0,1763.0,1690.0,1701.0,1752.0,1491.0,1981.0,1627.0,4.09609842300415,-29.341751098632812,18.48219108581543,Left
2666.78515625,18267,1,1753.0,1763.0,1279.0,1687.0,1755.0,932.0,1673.0,1717.0,4.09609842300415,-29.341751098632812,18.48219108581543,Left
2667.376953125,18268,1,1766.0,1766.0,2055.0,1843.0,1755.0,201.0,591.0,1695.0,4.09609842300415,-29.341751098632812,18.48219108581543,Left
2669.376953125,18268,1,1765.0,1766.0,1528.0,2009.0,1766.0,0.0,0.0,1630.0,2.920623779296875,-29.86125946044922,18.933748245239258,Left
2671.376953125,18268,1,1757.0,1763.0,2197.0,1831.0,1757.0,403.0,267.0,1699.0,2.920623779296875,-29.86125946044922,18.933748245239258,Left
2673.376953125,18268,1,1749.0,1750.0,1469.0,1770.0,1753.0,1811.0,1523.0,1837.0,2.920623779296875,-29.86125946044922,18.933748245239258,Left
2675.376953125,18268,1,1765.0,1767.0,1203.0,1678.0,1741.0,2517.0,2156.0,1695.0,2.920623779296875,-29.86125946044922,18.933748245239258,Left
2677.9970703125,18269,1,1764.0,1763.0,1891.0,1724.0,1753.0,3531.0,3657.0,1819.0,2.920623779296875,-29.86125946044922,18.933748245239258,Left
2679.9970703125,18269,1,1765.0,1767.0,1170.0,1525.0,1755.0,3767.0,3363.0,1967.0,2.920623779296875,-29.86125946044922,18.933748245239258,Left
2681.9970703125,18269,1,1766.0,1763.0,2085.0,1635.0,1755.0,3167.0,2909.0,1893.0,2.920623779296875,-29.86125946044922,18.933748245239258,Left
2683.9970703125,18269,1,1753.0,1749.0,1956.0,1804.0,1752.0,1629.0,1959.0,1751.0,2.920623779296875,-29.86125946044922,18.933748245239258,Left
2685.9970703125,18269,1,1763.0,1766.0,1501.0,1834.0,1756.0,1319.0,1595.0,1811.0,2.920623779296875,-29.86125946044922,18.933748245239258,Left
2692.570068359375,18270,1,1749.0,1762.0,1785.0,1838.0,1755.0,811.0,341.0,1597.0,2.920623779296875,-29.86125946044922,18.933748245239258,Left
2694.570068359375,18270,1,1763.0,1762.0,1879.0,2011.0,1740.0,0.0,0.0,1765.0,2.920623779296875,-29.86125946044922,18.933748245239258,Left
2696.570068359375,18270,1,1756.0,1757.0,1787.0,1951.0,1757.0,763.0,415.0,1699.0,2.920623779296875,-29.86125946044922,18.933748245239258,Left
2698.570068359375,18270,1,1764.0,1768.0,1407.0,1789.0,1742.0,1910.0,1673.0,1723.0,2.920623779296875,-29.86125946044922,18.933748245239258,Left
2700.570068359375,18270,1,1758.0,1768.0,1689.0,1741.0,1757.0,2037.0,2285.0,1887.0,2.920623779296875,-29.86125946044922,18.933748245239258,Left
2697.680908203125,18271,1,1767.0,1765.0,1971.0,1671.0,1755.0,2875.0,3689.0,1907.0,2.920623779296875,-29.86125946044922,18.933748245239258,Left
2699.680908203125,18271,1,1762.0,1769.0,1545.0,1469.0,1750.0,3797.0,3276.0,2059.0,2.920623779296875,-29.86125946044922,18.933748245239258,Left
2701.680908203125,18271,1,1751.0,1767.0,1977.0,1596.0,1753.0,2299.0,2855.0,1765.0,2.920623779296875,-29.86125946044922,18.933748245239258,Left
2703.680908203125,18271,1,1765.0,1768.0,1687.0,1704.0,1752.0,1229.0,1990.0,1708.0,2.920623779296875,-29.86125946044922,18.933748245239258,Left
2705.680908203125,18271,1,1748.0,1767.0,1678.0,1733.0,1757.0,953.0,1701.0,1637.0,2.920623779296875,-29.86125946044922,18.933748245239258,Left
2706.41796875,18272,1,1763.0,1743.0,1724.0,1879.0,1709.0,377.0,313.0,1499.0,2.920623779296875,-29.86125946044922,18.933748245239258,Left
2708.41796875,18272,1,1762.0,1755.0,1127.0,1919.0,1752.0,0.0,0.0,1445.0,2.920623779296875,-29.86125946044922,18.933748245239258,Left
2710.41796875,18272,1,1767.0,1751.0,2057.0,1887.0,1755.0,743.0,506.0,1572.0,2.920623779296875,-29.86125946044922,18.933748245239258,Left
2712.41796875,18272,1,1763.0,1751.0,1486.0,1820.0,1741.0,1975.0,1801.0,1700.0,2.920623779296875,-29.86125946044922,18.933748245239258,Left
2714.41796875,18272,1,1758.0,1755.0,2134.0,1711.0,1753.0,2411.0,2382.0,1737.0,2.920623779296875,-29.86125946044922,18.933748245239258,Left
2720.97412109375,18273,1,1749.0,1749.0,1659.0,1624.0,1740.0,3549.0,3500.0,1925.0,2.920623779296875,-29.86125946044922,18.933748245239258,Left
2722.97412109375,18273,1,1738.0,1766.0,1717.0,1578.0,1753.0,3791.0,3091.0,1939.0,2.920623779296875,-29.86125946044922,18.933748245239258,Left
2724.97412109375,18273,1,1757.0,1756.0,1590.0,1647.0,1740.0,3769.0,2795.0,1817.0,2.920623779296875,-29.86125946044922,18.933748245239258,Left
2726.97412109375,18273,1,1749.0,1767.0,2164.0,1813.0,1740.0,2349.0,1977.0,1693.0,2.920623779296875,-29.86125946044922,18.933748245239258,Left
2728.97412109375,18273,1,1763.0,1763.0,1467.0,1784.0,1751.0,1556.0,1655.0,1871.0,2.920623779296875,-29.86125946044922,18.933748245239258,Left
2727.4990234375,18274,1,1753.0,1749.0,1780.0,1895.0,1745.0,718.0,524.0,1663.0,2.920623779296875,-29.86125946044922,18.933748245239258,Left
2729.4990234375,18274,1,1757.0,1758.0,1672.0,2019.0,1735.0,0.0,0.0,1704.0,2.920623779296875,-29.86125946044922,18.933748245239258,Left
2731.4990234375,18274,1,1755.0,1741.0,2265.0,1941.0,1755.0,756.0,595.0,1774.0,2.920623779296875,-29.86125946044922,18.933748245239258,Left
2733.4990234375,18274,1,1769.0,1763.0,1595.0,1811.0,1752.0,2252.0,1975.0,1764.0,2.920623779296875,-29.86125946044922,18.933748245239258,Left
2735.4990234375,18274,1,1765.0,1757.0,1706.0,1784.0,1742.0,2764.0,2633.0,1645.0,3.7585203647613525,-29.693086624145508,18.865833282470703,Left
2740.122802734375,18275,1,1761.0,1766.0,1931.0,1591.0,1755.0,3727.0,3288.0,1718.0,3.7585203647613525,-29.693086624145508,18.865833282470703,Left
2742.122802734375,18275,1,1763.0,1767.0,1741.0,1547.0,1755.0,3769.0,2908.0,1913.0,3.7585203647613525,-29.693086624145508,18.865833282470703,Left
2744.122802734375,18275,1,1749.0,1757.0,1563.0,1578.0,1747.0,3117.0,2647.0,1761.0,3.7585203647613525,-29.693086624145508,18.865833282470703,Left
2746.122802734375,18275,1,1761.0,1749.0,891.0,1755.0,1741.0,1640.0,1855.0,1764.0,3.7585203647613525,-29.693086624145508,18.865833282470703,Left
2748.122802734375,18275,1,1755.0,1764.0,2490.0,1855.0,1757.0,1477.0,1603.0,1645.0,3.7585203647613525,-29.693086624145508,18.865833282470703,Left
2749.283935546875,18276,1,1759.0,1765.0,1607.0,1871.0,1743.0,714.0,345.0,1719.0,3.7585203647613525,-29.693086624145508,18.865833282470703,Left
2751.283935546875,18276,1,1765.0,1759.0,1655.0,1943.0,1736.0,0.0,0.0,1735.0,3.7585203647613525,-29.693086624145508,18.865833282470703,Left
2753.283935546875,18276,1,1764.0,1763.0,1660.0,2003.0,1756.0,890.0,646.0,1767.0,3.7585203647613525,-29.693086624145508,18.865833282470703,Left
2755.283935546875,18276,1,1763.0,1759.0,1765.0,1753.0,1717.0,1947.0,1945.0,1757.0,3.7585203647613525,-29.693086624145508,18.865833282470703,Left
2757.283935546875,18276,1,1763.0,1768.0,1630.0,1749.0,1753.0,2328.0,2493.0,1839.0,3.7585203647613525,-29.693086624145508,18.865833282470703,Left
2758.8740234375,18277,1,1757.0,1762.0,2440.0,1709.0,1756.0,3444.0,3189.0,1784.0,3.7585203647613525,-29.693086624145508,18.865833282470703,Left
2760.8740234375,18277,1,1765.0,1751.0,1437.0,1564.0,1753.0,3796.0,2861.0,1891.0,3.7585203647613525,-29.693086624145508,18.865833282470703,Left
2762.8740234375,18277,1,1747.0,1765.0,1918.0,1483.0,1757.0,2779.0,2585.0,1796.0,3.7585203647613525,-29.693086624145508,18.865833282470703,Left
2764.8740234375,18277,1,1763.0,1759.0,1723.0,1587.0,1753.0,1198.0,1849.0,1737.0,3.7585203647613525,-29.693086624145508,18.865833282470703,Left
2766.8740234375,18277,1,1756.0,1764.0,1467.0,1685.0,1755.0,579.0,1689.0,1827.0,3.7585203647613525,-29.693086624145508,18.865833282470703,Left
2768.291015625,18278,1,1757.0,1765.0,2123.0,1753.0,1753.0,0.0,217.0,1829.0,3.7585203647613525,-29.693086624145508,18.865833282470703,Left
2770.291015625,18278,1,1764.0,1763.0,1271.0,2011.0,1749.0,0.0,0.0,1949.0,3.7585203647613525,-29.693086624145508,18.865833282470703,Left
2772.291015625,18278,1,1767.0,1767.0,1819.0,1929.0,1757.0,45.0,613.0,1863.0,3.7585203647613525,-29.693086624145508,18.865833282470703,Left
2774.291015625,18278,1,1763.0,1763.0,2085.0,1725.0,1756.0,1336.0,1943.0,1863.0,3.7585203647613525,-29.693086624145508,18.865833282470703,Left
2776.291015625,18278,1,1753.0,1762.0,1757.0,1757.0,1757.0,1544.0,2565.0,1812.0,3.7585203647613525,-29.693086624145508,18.865833282470703,Left
2776.152099609375,18279,1,1749.0,1749.0,2091.0,1582.0,1755.0,2490.0,3165.0,1880.0,3.7585203647613525,-29.693086624145508,18.865833282470703,Left
2778.152099609375,18279,1,1763.0,1763.0,1820.0,1433.0,1753.0,3102.0,2831.0,1903.0,3.7585203647613525,-29.693086624145508,18.865833282470703,Left
2780.152099609375,18279,1,1763.0,1762.0,1765.0,1581.0,1741.0,1915.0,2581.0,1709.0,3.7585203647613525,-29.693086624145508,18.865833282470703,Left
2782.152099609375,18279,1,1747.0,1757.0,1463.0,1711.0,1753.0,1228.0,1831.0,1573.0,3.7585203647613525,-29.693086624145508,18.865833282470703,Left
2784.152099609375,18279,1,1748.0,1767.0,1845.0,1789.0,1753.0,1133.0,1674.0,1669.0,3.7585203647613525,-29.693086624145508,18.865833282470703,Left
2786.58203125,18280,1,1764.0,1766.0,2169.0,1933.0,1755.0,365.0,175.0,1595.0,3.7585203647613525,-29.693086624145508,18.865833282470703,Left
2788.58203125,18280,1,1755.0,1749.0,1385.0,2073.0,1740.0,0.0,0.0,1566.0,3.7585203647613525,-29.693086624145508,18.865833282470703,Left
2790.58203125,18280,1,1763.0,1763.0,1455.0,1932.0,1745.0,594.0,647.0,1642.0,3.7585203647613525,-29.693086624145508,18.865833282470703,Left
2792.58203125,18280,1,1767.0,1763.0,2585.0,1787.0,1755.0,1913.0,1913.0,1655.0,3.7585203647613525,-29.693086624145508,18.865833282470703,Left
2794.58203125,18280,1,1763.0,1767.0,1691.0,1721.0,1755.0,2713.0,2395.0,1673.0,3.7585203647613525,-29.693086624145508,18.865833282470703,Left
2798.552001953125,18281,1,1759.0,1763.0,1641.0,1684.0,1753.0,3767.0,3199.0,1815.0,3.7585203647613525,-29.693086624145508,18.865833282470703,Left
2800.552001953125,18281,1,1751.0,1769.0,1635.0,1553.0,1741.0,3794.0,2895.0,1791.0,2.6876354217529297,-29.952964782714844,18.95203399658203,Left
2802.552001953125,18281,1,1750.0,1757.0,2343.0,1655.0,1741.0,2429.0,2585.0,1677.0,2.6876354217529297,-29.952964782714844,18.95203399658203,Left
2804.552001953125,18281,1,1759.0,1763.0,1449.0,1835.0,1740.0,1245.0,1804.0,1819.0,2.6876354217529297,-29.952964782714844,18.95203399658203,Left
2806.552001953125,18281,1,1741.0,1752.0,2057.0,1799.0,1754.0,903.0,1583.0,1678.0,2.6876354217529297,-29.952964782714844,18.95203399658203,Left
2806.82177734375,18282,1,1763.0,1771.0,1944.0,1820.0,1741.0,0.0,0.0,1643.0,2.6876354217529297,-29.952964782714844,18.95203399658203,Left
2808.82177734375,18282,1,1759.0,1763.0,1332.0,1977.0,1753.0,0.0,9.0,1545.0,2.6876354217529297,-29.952964782714844,18.95203399658203,Left
2810.82177734375,18282,1,1762.0,1764.0,1751.0,1977.0,1755.0,282.0,787.0,1623.0,2.6876354217529297,-29.952964782714844,18.95203399658203,Left
2812.82177734375,18282,1,1750.0,1765.0,1869.0,1901.0,1755.0,1651.0,1979.0,1619.0,2.6876354217529297,-29.952964782714844,18.95203399658203,Left
2814.82177734375,18282,1,1757.0,1749.0,1581.0,1749.0,1755.0,2431.0,2483.0,1699.0,2.6876354217529297,-29.952964782714844,18.95203399658203,Left
2821.640869140625,18283,1,1764.0,1758.0,1416.0,1621.0,1739.0,3797.0,3191.0,1717.0,2.6876354217529297,-29.952964782714844,18.95203399658203,Left
2823.640869140625,18283,1,1766.0,1765.0,2203.0,1519.0,1747.0,3793.0,2859.0,1765.0,2.6876354217529297,-29.952964782714844,18.95203399658203,Left
2825.640869140625,18283,1,1767.0,1751.0,1647.0,1635.0,1755.0,3797.0,2557.0,1717.0,2.6876354217529297,-29.952964782714844,18.95203399658203,Left
2827.640869140625,18283,1,1759.0,1767.0,1893.0,1747.0,1753.0,2863.0,1784.0,1805.0,2.6876354217529297,-29.952964782714844,18.95203399658203,Left
2829.640869140625,18283,1,1758.0,1759.0,1771.0,1805.0,1743.0,2207.0,1576.0,1829.0,2.6876354217529297,-29.952964782714844,18.95203399658203,Left
2826.76708984375,18284,1,1761.0,1747.0,1765.0,1733.0,1753.0,933.0,29.0,1790.0,2.6876354217529297,-29.952964782714844,18.95203399658203,Left
2828.76708984375,18284,1,1757.0,1756.0,2103.0,1909.0,1755.0,169.0,77.0,1688.0,2.6876354217529297,-29.952964782714844,18.95203399658203,Left
2830.76708984375,18284,1,1765.0,1757.0,1901.0,1824.0,1745.0,936.0,821.0,1861.0,2.6876354217529297,-29.952964782714844,18.95203399658203,Left
2832.76708984375,18284,1,1755.0,1765.0,1817.0,1805.0,1757.0,2087.0,2087.0,1946.0,2.6876354217529297,-29.952964782714844,18.95203399658203,Left
2834.76708984375,18284,1,1765.0,1763.0,1629.0,1751.0,1757.0,2501.0,2615.0,1949.0,2.6876354217529297,-29.952964782714844,18.95203399658203,Left
2843.057861328125,18285,1,1763.0,1751.0,1381.0,1575.0,1745.0,3791.0,3107.0,1997.0,2.6876354217529297,-29.952964782714844,18.95203399658203,Left
2845.057861328125,18285,1,1762.0,1765.0,1967.0,1543.0,1751.0,3790.0,2813.0,1879.0,2.6876354217529297,-29.952964782714844,18.95203399658203,Left
2847.057861328125,18285,1,1749.0,1762.0,1611.0,1675.0,1753.0,2869.0,2501.0,1801.0,2.6876354217529297,-29.952964782714844,18.95203399658203,Left
2849.057861328125,18285,1,1765.0,1767.0,1651.0,1694.0,1757.0,1560.0,1823.0,1769.0,2.6876354217529297,-29.952964782714844,18.95203399658203,Left
2851.057861328125,18285,1,1750.0,1767.0,1893.0,1789.0,1751.0,1225.0,1670.0,1719.0,2.6876354217529297,-29.952964782714844,18.95203399658203,Left
2849.694091796875,18286,1,1749.0,1759.0,1788.0,1827.0,1753.0,136.0,0.0,1609.0,2.6876354217529297,-29.952964782714844,18.95203399658203,Left
2851.694091796875,18286,1,1752.0,1765.0,1688.0,1915.0,1753.0,0.0,41.0,1661.0,2.6876354217529297,-29.952964782714844,18.95203399658203,Left
2853.694091796875,18286,1,1742.0,1723.0,1848.0,1815.0,1757.0,493.0,739.0,1843.0,2.6876354217529297,-29.952964782714844,18.95203399658203,Left
2855.694091796875,18286,1,1765.0,1765.0,1773.0,1749.0,1740.0,1801.0,2015.0,1891.0,2.6876354217529297,-29.952964782714844,18.95203399658203,Left
2857.694091796875,18286,1,1759.0,1765.0,1351.0,1717.0,1747.0,2249.0,2566.0,1791.0,2.6876354217529297,-29.952964782714844,18.95203399658203,Left
2856.589111328125,18287,1,1763.0,1753.0,1885.0,1605.0,1741.0,3767.0,3089.0,1975.0,2.6876354217529297,-29.952964782714844,18.95203399658203,Left
2858.589111328125,18287,1,1763.0,1759.0,2023.0,1629.0,1719.0,3938.0,2765.0,1855.0,2.6876354217529297,-29.952964782714844,18.95203399658203,Left
2860.589111328125,18287,1,1747.0,1750.0,1628.0,1735.0,1755.0,2692.0,2492.0,1765.0,2.6876354217529297,-29.952964782714844,18.95203399658203,Left
2862.589111328125,18287,1,1764.0,1759.0,2250.0,1735.0,1751.0,1645.0,1849.0,1849.0,2.5993363857269287,-30.510940551757812,19.275415420532227,Left
2864.589111328125,18287,1,1747.0,1752.0,1450.0,1723.0,1739.0,1485.0,1629.0,1691.0,2.5993363857269287,-30.510940551757812,19.275415420532227,Left
2865.73095703125,18288,1,1763.0,1765.0,1622.0,1813.0,1755.0,218.0,0.0,1566.0,2.5993363857269287,-30.510940551757812,19.275415420532227,Left
2867.73095703125,18288,1,1746.0,1762.0,1876.0,1983.0,1755.0,0.0,91.0,1589.0,2.5993363857269287,-30.510940551757812,19.275415420532227,Left
2869.73095703125,18288,1,1751.0,1758.0,1819.0,1845.0,1755.0,741.0,901.0,1743.0,2.5993363857269287,-30.510940551757812,19.275415420532227,Left
2871.73095703125,18288,1,1763.0,1764.0,2284.0,1752.0,1743.0,1913.0,2106.0,1689.0,2.5993363857269287,-30.510940551757812,19.275415420532227,Left
2873.73095703125,18288,1,1763.0,1765.0,1379.0,1669.0,1756.0,2474.0,2637.0,1677.0,2.5993363857269287,-30.510940551757812,19.275415420532227,Left
2878.825927734375,18289,1,1763.0,1739.0,1940.0,1581.0,1755.0,3785.0,2972.0,1903.0,2.5993363857269287,-30.510940551757812,19.275415420532227,Left
2880.825927734375,18289,1,1763.0,1763.0,1737.0,1527.0,1743.0,3783.0,2709.0,1745.0,2.5993363857269287,-30.510940551757812,19.275415420532227,Left
2882.825927734375,18289,1,1748.0,1765.0,1812.0,1663.0,1754.0,3365.0,2440.0,1675.0,2.5993363857269287,-30.510940551757812,19.275415420532227,Left
2884.825927734375,18289,1,1751.0,1763.0,1935.0,1715.0,1752.0,2219.0,1701.0,1651.0,2.5993363857269287,-30.510940551757812,19.275415420532227,Left
2886.825927734375,18289,1,1757.0,1749.0,1422.0,1787.0,1755.0,1609.0,1653.0,1555.0,2.5993363857269287,-30.510940551757812,19.275415420532227,Left
2892.68603515625,18290,1,1752.0,1749.0,2043.0,1883.0,1756.0,231.0,0.0,1752.0,2.5993363857269287,-30.510940551757812,19.275415420532227,Left
2894.68603515625,18290,1,1765.0,1764.0,2098.0,1907.0,1756.0,0.0,135.0,1544.0,2.5993363857269287,-30.510940551757812,19.275415420532227,Left
2896.68603515625,18290,1,1763.0,1758.0,1702.0,1861.0,1755.0,569.0,939.0,1653.0,2.5993363857269287,-30.510940551757812,19.275415420532227,Left
2898.68603515625,18290,1,1747.0,1759.0,1663.0,1844.0,1753.0,1689.0,2158.0,1791.0,2.5993363857269287,-30.510940551757812,19.275415420532227,Left
2900.68603515625,18290,1,1756.0,1767.0,2133.0,1779.0,1756.0,1959.0,2587.0,1715.0,2.5993363857269287,-30.510940551757812,19.275415420532227,Left
2897.049072265625,18291,1,1765.0,1747.0,1319.0,1681.0,1751.0,3411.0,2943.0,1817.0,2.5993363857269287,-30.510940551757812,19.275415420532227,Left
2899.049072265625,18291,1,1751.0,1767.0,1861.0,1621.0,1725.0,3932.0,2680.0,1880.0,2.5993363857269287,-30.510940551757812,19.275415420532227,Left
2901.049072265625,18291,1,1750.0,1764.0,1741.0,1733.0,1753.0,2357.0,2380.0,1765.0,2.5993363857269287,-30.510940551757812,19.275415420532227,Left
2903.049072265625,18291,1,1763.0,1761.0,1817.0,1837.0,1753.0,1305.0,1757.0,1743.0,2.5993363857269287,-30.510940551757812,19.275415420532227,Left
2905.049072265625,18291,1,1758.0,1767.0,1353.0,1931.0,1753.0,661.0,1637.0,1801.0,2.5993363857269287,-30.510940551757812,19.275415420532227,Left
2907.98681640625,18292,1,1759.0,1759.0,2361.0,1843.0,1739.0,0.0,0.0,1661.0,2.5993363857269287,-30.510940551757812,19.275415420532227,Left
2909.98681640625,18292,1,1754.0,1749.0,1555.0,1973.0,1757.0,0.0,139.0,1720.0,2.5993363857269287,-30.510940551757812,19.275415420532227,Left
2911.98681640625,18292,1,1763.0,1764.0,1477.0,1838.0,1753.0,291.0,1013.0,1699.0,2.5993363857269287,-30.510940551757812,19.275415420532227,Left
2913.98681640625,18292,1,1757.0,1764.0,2351.0,1849.0,1753.0,778.0,2151.0,1663.0,2.5993363857269287,-30.510940551757812,19.275415420532227,Left
2915.98681640625,18292,1,1765.0,1749.0,1661.0,1709.0,1755.0,621.0,2570.0,1645.0,2.5993363857269287,-30.510940551757812,19.275415420532227,Left
2923.343994140625,18293,1,1763.0,1765.0,1663.0,1597.0,1753.0,1819.0,2904.0,1747.0,2.5993363857269287,-30.510940551757812,19.275415420532227,Left
2925.343994140625,18293,1,1763.0,1765.0,1476.0,1563.0,1741.0,3004.0,2671.0,1724.0,2.5993363857269287,-30.510940551757812,19.275415420532227,Left
2927.343994140625,18293,1,1757.0,1751.0,1749.0,1587.0,1754.0,2713.0,2333.0,1719.0,2.5993363857269287,-30.510940551757812,19.275415420532227,Left
2929.343994140625,18293,1,1765.0,1759.0,1959.0,1720.0,1755.0,2039.0,1658.0,1705.0,2.5993363857269287,-30.510940551757812,19.275415420532227,Left
2931.343994140625,18293,1,1764.0,1768.0,1701.0,1686.0,1753.0,1918.0,1587.0,1775.0,2.5993363857269287,-30.510940551757812,19.275415420532227,Left
2926.724853515625,18294,1,1758.0,1767.0,1583.0,1823.0,1755.0,659.0,0.0,1751.0,2.5993363857269287,-30.510940551757812,19.275415420532227,Left
2928.724853515625,18294,1,1767.0,1749.0,1563.0,1915.0,1743.0,308.0,227.0,1725.0,1.9672695398330688,-30.582881927490234,19.49905014038086,Left
2930.724853515625,18294,1,1763.0,1758.0,1451.0,1868.0,1751.0,1293.0,1001.0,1769.0,1.9672695398330688,-30.582881927490234,19.49905014038086,Left
2932.724853515625,18294,1,1763.0,1757.0,2149.0,1851.0,1752.0,2509.0,2134.0,1773.0,1.9672695398330688,-30.582881927490234,19.49905014038086,Left
2934.724853515625,18294,1,1759.0,1759.0,1931.0,1767.0,1753.0,2813.0,2523.0,1677.0,1.9672695398330688,-30.582881927490234,19.49905014038086,Left
2940.473876953125,18295,1,1763.0,1769.0,1612.0,1608.0,1753.0,3799.0,2981.0,1917.0,1.9672695398330688,-30.582881927490234,19.49905014038086,Left
2942.473876953125,18295,1,1747.0,1757.0,1787.0,1605.0,1757.0,3796.0,2707.0,1926.0,1.9672695398330688,-30.582881927490234,19.49905014038086,Left
2944.473876953125,18295,1,1751.0,1757.0,1712.0,1687.0,1759.0,3035.0,2366.0,1773.0,1.9672695398330688,-30.582881927490234,19.49905014038086,Left
2946.473876953125,18295,1,1764.0,1763.0,1439.0,1897.0,1759.0,2014.0,1724.0,1798.0,1.9672695398330688,-30.582881927490234,19.49905014038086,Left
2948.473876953125,18295,1,1751.0,1753.0,1677.0,1799.0,1752.0,1469.0,1643.0,1692.0,1.9672695398330688,-30.582881927490234,19.49905014038086,Left
2948.651123046875,18296,1,1766.0,1763.0,1831.0,1820.0,1755.0,111.0,0.0,1573.0,1.9672695398330688,-30.582881927490234,19.49905014038086,Left
2950.651123046875,18296,1,1754.0,1773.0,2149.0,1867.0,1741.0,0.0,275.0,1560.0,1.9672695398330688,-30.582881927490234,19.49905014038086,Left
2952.651123046875,18296,1,1763.0,1764.0,1629.0,1775.0,1741.0,563.0,1109.0,1641.0,1.9672695398330688,-30.582881927490234,19.49905014038086,Left
2954.651123046875,18296,1,1759.0,1762.0,1763.0,1735.0,1757.0,1529.0,2282.0,1724.0,1.9672695398330688,-30.582881927490234,19.49905014038086,Left
2956.651123046875,18296,1,1763.0,1756.0,1629.0,1708.0,1755.0,1709.0,2687.0,1853.0,1.9672695398330688,-30.582881927490234,19.49905014038086,Left
2957.786865234375,18297,1,1753.0,1763.0,1741.0,1647.0,1753.0,3469.0,2873.0,1876.0,1.9672695398330688,-30.582881927490234,19.49905014038086,Left
2959.786865234375,18297,1,1762.0,1728.0,1763.0,1598.0,1755.0,3477.0,2621.0,1863.0,1.9672695398330688,-30.582881927490234,19.49905014038086,Left
2961.786865234375,18297,1,1765.0,1751.0,2063.0,1675.0,1757.0,2246.0,2279.0,1619.0,1.9672695398330688,-30.582881927490234,19.49905014038086,Left
2963.786865234375,18297,1,1752.0,1751.0,1643.0,1747.0,1765.0,1187.0,1653.0,1719.0,1.9672695398330688,-30.582881927490234,19.49905014038086,Left
2965.786865234375,18297,1,1752.0,1767.0,1623.0,1899.0,1755.0,551.0,1643.0,1571.0,1.9672695398330688,-30.582881927490234,19.49905014038086,Left
2970.7451171875,18298,1,1763.0,1762.0,1975.0,1940.0,1751.0,0.0,0.0,1579.0,1.9672695398330688,-30.582881927490234,19.49905014038086,Left
2972.7451171875,18298,1,1739.0,1765.0,1781.0,2052.0,1740.0,0.0,249.0,1659.0,1.9672695398330688,-30.582881927490234,19.49905014038086,Left
2974.7451171875,18298,1,1756.0,1749.0,1917.0,1901.0,1751.0,243.0,1144.0,1645.0,1.9672695398330688,-30.582881927490234,19.49905014038086,Left
2976.7451171875,18298,1,1755.0,1751.0,1421.0,1799.0,1741.0,1764.0,2295.0,1683.0,1.9672695398330688,-30.582881927490234,19.49905014038086,Left
2978.7451171875,18298,1,1749.0,1766.0,1566.0,1717.0,1751.0,2158.0,2740.0,1683.0,1.9672695398330688,-30.582881927490234,19.49905014038086,Left
2976.473876953125,18299,1,1762.0,1749.0,1910.0,1549.0,1739.0,3758.0,2835.0,1837.0,1.9672695398330688,-30.582881927490234,19.49905014038086,Left
2978.473876953125,18299,1,1753.0,1749.0,1557.0,1499.0,1747.0,3793.0,2589.0,1835.0,1.9672695398330688,-30.582881927490234,19.49905014038086,Left
2980.473876953125,18299,1,1761.0,1765.0,1679.0,1547.0,1755.0,2863.0,2207.0,1783.0,1.9672695398330688,-30.582881927490234,19.49905014038086,Left
2982.473876953125,18299,1,1757.0,1765.0,1719.0,1737.0,1755.0,1723.0,1646.0,1767.0,1.9672695398330688,-30.582881927490234,19.49905014038086,Left
2984.473876953125,18299,1,1749.0,1768.0,1711.0,1686.0,1756.0,1599.0,1563.0,1753.0,1.9672695398330688,-30.582881927490234,19.49905014038086,Left
2991.93994140625,18300,1,1759.0,1769.0,1805.0,1812.0,1749.0,420.0,0.0,1703.0,1.9672695398330688,-30.582881927490234,19.49905014038086,Left
2993.93994140625,18300,1,1765.0,1762.0,1766.0,1957.0,1750.0,404.0,309.0,1636.0,1.9672695398330688,-30.582881927490234,19.49905014038086,Left
2995.93994140625,18300,1,1755.0,1751.0,1567.0,1803.0,1758.0,1491.0,1253.0,1704.0,1.9672695398330688,-30.582881927490234,19.49905014038086,Left
2997.93994140625,18300,1,1751.0,1757.0,1805.0,1683.0,1755.0,2377.0,2340.0,1885.0,2.1701457500457764,-30.6555118560791,19.71183967590332,Left
2999.93994140625,18300,1,1763.0,1757.0,1523.0,1609.0,1757.0,2393.0,2699.0,1807.0,2.1701457500457764,-30.6555118560791,19.71183967590332,Left
2995.50390625,18301,1,1755.0,1743.0,1806.0,1583.0,1754.0,3815.0,2776.0,1839.0,2.1701457500457764,-30.6555118560791,19.71183967590332,Left
2997.50390625,18301,1,1753.0,1751.0,1929.0,1627.0,1754.0,3436.0,2578.0,1899.0,2.1701457500457764,-30.6555118560791,19.71183967590332,Left
2999.50390625,18301,1,1749.0,1763.0,1756.0,1647.0,1739.0,2269.0,2239.0,1915.0,2.1701457500457764,-30.6555118560791,19.71183967590332,Left
3001.50390625,18301,1,1747.0,1765.0,1619.0,1832.0,1757.0,1319.0,1727.0,1907.0,2.1701457500457764,-30.6555118560791,19.71183967590332,Left
3003.50390625,18301,1,1763.0,1764.0,1733.0,1757.0,1755.0,1125.0,1675.0,1773.0,2.1701457500457764,-30.6555118560791,19.71183967590332,Left
3007.14892578125,18302,1,1751.0,1764.0,1663.0,1976.0,1755.0,87.0,0.0,1651.0,2.1701457500457764,-30.6555118560791,19.71183967590332,Left
3009.14892578125,18302,1,1749.0,1767.0,2169.0,2031.0,1755.0,0.0,311.0,1568.0,2.1701457500457764,-30.6555118560791,19.71183967590332,Left
3011.14892578125,18302,1,1750.0,1757.0,1251.0,1935.0,1757.0,980.0,1325.0,1817.0,2.1701457500457764,-30.6555118560791,19.71183967590332,Left
3013.14892578125,18302,1,1762.0,1764.0,1908.0,1833.0,1758.0,1757.0,2291.0,1739.0,2.1701457500457764,-30.6555118560791,19.71183967590332,Left
3015.14892578125,18302,1,1766.0,1767.0,1837.0,1737.0,1761.0,2213.0,2799.0,1915.0,2.1701457500457764,-30.6555118560791,19.71183967590332,Left
3026.823974609375,18303,1,1763.0,1733.0,1565.0,1635.0,1755.0,3836.0,2713.0,1705.0,2.1701457500457764,-30.6555118560791,19.71183967590332,Left
3028.823974609375,18303,1,1755.0,1765.0,1903.0,1509.0,1754.0,3785.0,2511.0,1705.0,2.1701457500457764,-30.6555118560791,19.71183967590332,Left
3030.823974609375,18303,1,1749.0,1765.0,1815.0,1661.0,1752.0,2299.0,2235.0,1655.0,2.1701457500457764,-30.6555118560791,19.71183967590332,Left
3032.823974609375,18303,1,1751.0,1758.0,1877.0,1705.0,1751.0,1277.0,1703.0,1639.0,2.1701457500457764,-30.6555118560791,19.71183967590332,Left
3034.823974609375,18303,1,1763.0,1767.0,1692.0,1828.0,1753.0,884.0,1681.0,1619.0,2.1701457500457764,-30.6555118560791,19.71183967590332,Left
3028.48095703125,18304,1,1763.0,1764.0,1875.0,1925.0,1743.0,0.0,0.0,1531.0,2.1701457500457764,-30.6555118560791,19.71183967590332,Left
3030.48095703125,18304,1,1755.0,1765.0,1753.0,1955.0,1756.0,0.0,260.0,1447.0,2.1701457500457764,-30.6555118560791,19.71183967590332,Left
3032.48095703125,18304,1,1764.0,1749.0,1708.0,1819.0,1740.0,1076.0,1289.0,1613.0,2.1701457500457764,-30.6555118560791,19.71183967590332,Left
3034.48095703125,18304,1,1748.0,1763.0,1947.0,1798.0,1751.0,2056.0,2389.0,1605.0,2.1701457500457764,-30.6555118560791,19.71183967590332,Left
3036.48095703125,18304,1,1748.0,1768.0,1647.0,1753.0,1746.0,2257.0,2703.0,1675.0,2.1701457500457764,-30.6555118560791,19.71183967590332,Left
3038.72802734375,18305,1,1764.0,1749.0,1885.0,1635.0,1755.0,3790.0,2731.0,1797.0,2.1701457500457764,-30.6555118560791,19.71183967590332,Left
3040.72802734375,18305,1,1763.0,1751.0,1384.0,1627.0,1739.0,3798.0,2520.0,1848.0,2.1701457500457764,-30.6555118560791,19.71183967590332,Left
3042.72802734375,18305,1,1752.0,1765.0,1759.0,1608.0,1850.0,3077.0,2135.0,1772.0,2.1701457500457764,-30.6555118560791,19.71183967590332,Left
3044.72802734375,18305,1,1763.0,1767.0,1651.0,1625.0,1757.0,1947.0,1551.0,1791.0,2.1701457500457764,-30.6555118560791,19.71183967590332,Left
3046.72802734375,18305,1,1759.0,1769.0,2279.0,1661.0,1757.0,1703.0,1611.0,1607.0,2.1701457500457764,-30.6555118560791,19.71183967590332,Left
3047.18994140625,18306,1,1759.0,1751.0,1576.0,1801.0,1755.0,112.0,9.0,1597.0,2.1701457500457764,-30.6555118560791,19.71183967590332,Left
3049.18994140625,18306,1,1754.0,1765.0,2207.0,1971.0,1758.0,89.0,411.0,1645.0,2.1701457500457764,-30.6555118560791,19.71183967590332,Left
3051.18994140625,18306,1,1759.0,1767.0,1322.0,1819.0,1755.0,1054.0,1287.0,1773.0,2.1701457500457764,-30.6555118560791,19.71183967590332,Left
3053.18994140625,18306,1,1761.0,1752.0,1237.0,1699.0,1752.0,1925.0,2310.0,1686.0,2.1701457500457764,-30.6555118560791,19.71183967590332,Left
3055.18994140625,18306,1,1761.0,1759.0,2095.0,1673.0,1757.0,2487.0,2668.0,1768.0,2.1701457500457764,-30.6555118560791,19.71183967590332,Left
3056.988037109375,18307,1,1756.0,1741.0,1879.0,1597.0,1755.0,3790.0,2791.0,1897.0,2.1701457500457764,-30.6555118560791,19.71183967590332,Left
3058.988037109375,18307,1,1763.0,1769.0,1829.0,1575.0,1755.0,3795.0,2565.0,1945.0,1.8236918449401855,-30.621349334716797,19.679658889770508,Left
3060.988037109375,18307,1,1759.0,1763.0,1543.0,1677.0,1755.0,2887.0,2196.0,1844.0,1.8236918449401855,-30.621349334716797,19.679658889770508,Left
3062.988037109375,18307,1,1767.0,1765.0,1605.0,1879.0,1751.0,1845.0,1671.0,1741.0,1.8236918449401855,-30.621349334716797,19.679658889770508,Left
3064.988037109375,18307,1,1747.0,1757.0,1191.0,1864.0,1740.0,1341.0,1593.0,1597.0,1.8236918449401855,-30.621349334716797,19.679658889770508,Left
3066.54296875,18308,1,1762.0,1757.0,1981.0,1895.0,1740.0,10.0,35.0,1733.0,1.8236918449401855,-30.621349334716797,19.679658889770508,Left
3068.54296875,18308,1,1759.0,1757.0,2010.0,1967.0,1750.0,327.0,440.0,1663.0,1.8236918449401855,-30.621349334716797,19.679658889770508,Left
3070.54296875,18308,1,1756.0,1765.0,1671.0,1869.0,1754.0,1323.0,1322.0,1756.0,1.8236918449401855,-30.621349334716797,19.679658889770508,Left
3072.54296875,18308,1,1749.0,1765.0,1663.0,1747.0,1751.0,2392.0,2349.0,1832.0,1.8236918449401855,-30.621349334716797,19.679658889770508,Left
3074.54296875,18308,1,1754.0,1759.0,1678.0,1813.0,1745.0,2597.0,2734.0,1813.0,1.8236918449401855,-30.621349334716797,19.679658889770508,Left
3075.22998046875,18309,1,1749.0,1751.0,1619.0,1591.0,1753.0,3768.0,2766.0,1904.0,1.8236918449401855,-30.621349334716797,19.679658889770508,Left
3077.22998046875,18309,1,1763.0,1757.0,1547.0,1421.0,1751.0,3790.0,2565.0,1915.0,1.8236918449401855,-30.621349334716797,19.679658889770508,Left
3079.22998046875,18309,1,1758.0,1765.0,1755.0,1641.0,1739.0,2517.0,2171.0,1819.0,1.8236918449401855,-30.621349334716797,19.679658889770508,Left
3081.22998046875,18309,1,1765.0,1765.0,2053.0,1725.0,1753.0,1489.0,1588.0,1979.0,1.8236918449401855,-30.621349334716797,19.679658889770508,Left
3083.22998046875,18309,1,1763.0,1763.0,1684.0,1739.0,1755.0,1059.0,1575.0,1897.0,1.8236918449401855,-30.621349334716797,19.679658889770508,Left
3091.889892578125,18310,1,1763.0,1767.0,1951.0,1900.0,1740.0,0.0,45.0,1723.0,1.8236918449401855,-30.621349334716797,19.679658889770508,Left
3093.889892578125,18310,1,1763.0,1767.0,2357.0,2111.0,1751.0,0.0,476.0,1847.0,1.8236918449401855,-30.621349334716797,19.679658889770508,Left
3095.889892578125,18310,1,1764.0,1765.0,743.0,1964.0,1757.0,719.0,1439.0,1877.0,1.8236918449401855,-30.621349334716797,19.679658889770508,Left
3097.889892578125,18310,1,1767.0,1766.0,1816.0,1814.0,1755.0,1672.0,2441.0,1849.0,1.8236918449401855,-30.621349334716797,19.679658889770508,Left
3099.889892578125,18310,1,1752.0,1769.0,1951.0,1725.0,1755.0,2183.0,2795.0,1883.0,1.8236918449401855,-30.621349334716797,19.679658889770508,Left
3097.12890625,18311,1,1758.0,1745.0,1863.0,1543.0,1748.0,3784.0,2715.0,1949.0,1.8236918449401855,-30.621349334716797,19.679658889770508,Left
3099.12890625,18311,1,1727.0,1746.0,1892.0,1496.0,1751.0,3797.0,2501.0,1711.0,1.8236918449401855,-30.621349334716797,19.679658889770508,Left
3101.12890625,18311,1,1752.0,1768.0,1834.0,1647.0,1749.0,2599.0,2117.0,1779.0,1.8236918449401855,-30.621349334716797,19.679658889770508,Left
3103.12890625,18311,1,1763.0,1764.0,1487.0,1749.0,1754.0,1495.0,1625.0,1832.0,1.8236918449401855,-30.621349334716797,19.679658889770508,Left
3105.12890625,18311,1,1756.0,1765.0,1817.0,1810.0,1749.0,1211.0,1635.0,1771.0,1.8236918449401855,-30.621349334716797,19.679658889770508,Left
3107.076171875,18312,1,1763.0,1765.0,2072.0,1955.0,1757.0,0.0,9.0,1902.0,1.8236918449401855,-30.621349334716797,19.679658889770508,Left
3109.076171875,18312,1,1763.0,1757.0,1645.0,1955.0,1742.0,0.0,413.0,1707.0,1.8236918449401855,-30.621349334716797,19.679658889770508,Left
3111.076171875,18312,1,1749.0,1765.0,1224.0,1955.0,1753.0,968.0,1433.0,1735.0,1.8236918449401855,-30.621349334716797,19.679658889770508,Left
3113.076171875,18312,1,1750.0,1765.0,2471.0,1741.0,1755.0,1895.0,2473.0,1701.0,1.8236918449401855,-30.621349334716797,19.679658889770508,Left
3115.076171875,18312,1,1763.0,1765.0,1755.0,1751.0,1757.0,2245.0,2851.0,1818.0,1.8236918449401855,-30.621349334716797,19.679658889770508,Left
3115.68603515625,18313,1,1755.0,1769.0,1319.0,1579.0,1739.0,3789.0,2665.0,1785.0,1.8236918449401855,-30.621349334716797,19.679658889770508,Left
3117.68603515625,18313,1,1765.0,1763.0,2037.0,1453.0,1743.0,3797.0,2483.0,1735.0,1.8236918449401855,-30.621349334716797,19.679658889770508,Left
3119.68603515625,18313,1,1757.0,1757.0,1886.0,1635.0,1755.0,2632.0,2079.0,1765.0,1.8236918449401855,-30.621349334716797,19.679658889770508,Left
3121.68603515625,18313,1,1763.0,1757.0,1661.0,1818.0,1751.0,1587.0,1645.0,1678.0,2.3696208000183105,-30.65833854675293,19.8718204498291,Left
3123.68603515625,18313,1,1763.0,1752.0,1741.0,1941.0,1753.0,1268.0,1627.0,1660.0,2.3696208000183105,-30.65833854675293,19.8718204498291,Left
3127.758056640625,18314,1,1759.0,1691.0,1453.0,2070.0,1752.0,0.0,46.0,1529.0,2.3696208000183105,-30.65833854675293,19.8718204498291,Left
3129.758056640625,18314,1,1763.0,1767.0,1503.0,1989.0,1753.0,0.0,471.0,1545.0,2.3696208000183105,-30.65833854675293,19.8718204498291,Left
3131.758056640625,18314,1,1763.0,1764.0,2025.0,1850.0,1755.0,373.0,1517.0,1718.0,2.3696208000183105,-30.65833854675293,19.8718204498291,Left
3133.758056640625,18314,1,1747.0,1755.0,1806.0,1689.0,1741.0,1151.0,2426.0,1843.0,2.3696208000183105,-30.65833854675293,19.8718204498291,Left
3135.758056640625,18314,1,1749.0,1767.0,2019.0,1643.0,1755.0,1510.0,2772.0,1880.0,2.3696208000183105,-30.65833854675293,19.8718204498291,Left
3136.108154296875,18315,1,1758.0,1750.0,1545.0,1511.0,1753.0,3797.0,2634.0,1813.0,2.3696208000183105,-30.65833854675293,19.8718204498291,Left
3138.108154296875,18315,1,1755.0,1758.0,1645.0,1541.0,1755.0,3339.0,2442.0,1776.0,2.3696208000183105,-30.65833854675293,19.8718204498291,Left
3140.108154296875,18315,1,1759.0,1751.0,1463.0,1553.0,1755.0,2341.0,2018.0,1727.0,2.3696208000183105,-30.65833854675293,19.8718204498291,Left
3142.108154296875,18315,1,1765.0,1749.0,2141.0,1701.0,1741.0,1629.0,1673.0,1758.0,2.3696208000183105,-30.65833854675293,19.8718204498291,Left
3144.108154296875,18315,1,1749.0,1749.0,1807.0,1813.0,1740.0,1385.0,1693.0,1687.0,2.3696208000183105,-30.65833854675293,19.8718204498291,Left
3149.73583984375,18316,1,1759.0,1753.0,1894.0,1931.0,1753.0,0.0,72.0,1656.0,2.3696208000183105,-30.65833854675293,19.8718204498291,Left
3151.73583984375,18316,1,1763.0,1758.0,1357.0,1933.0,1751.0,137.0,463.0,1698.0,2.3696208000183105,-30.65833854675293,19.8718204498291,Left
3153.73583984375,18316,1,1763.0,1768.0,1608.0,1938.0,1746.0,1194.0,1489.0,1606.0,2.3696208000183105,-30.65833854675293,19.8718204498291,Left
3155.73583984375,18316,1,1750.0,1763.0,1748.0,1772.0,1757.0,2006.0,2451.0,1572.0,2.3696208000183105,-30.65833854675293,19.8718204498291,Left
3157.73583984375,18316,1,1765.0,1768.0,1502.0,1739.0,1757.0,2149.0,2833.0,1625.0,2.3696208000183105,-30.65833854675293,19.8718204498291,Left
3154.861083984375,18317,1,1761.0,1765.0,1824.0,1557.0,1747.0,3793.0,2622.0,1756.0,2.3696208000183105,-30.65833854675293,19.8718204498291,Left
3156.861083984375,18317,1,1724.0,1722.0,1899.0,1567.0,1753.0,2799.0,2431.0,1691.0,2.3696208000183105,-30.65833854675293,19.8718204498291,Left
3158.861083984375,18317,1,1763.0,1751.0,2148.0,1672.0,1747.0,1991.0,2057.0,1780.0,2.3696208000183105,-30.65833854675293,19.8718204498291,Left
3160.861083984375,18317,1,1759.0,1750.0,1294.0,1737.0,1757.0,1353.0,1643.0,1644.0,2.3696208000183105,-30.65833854675293,19.8718204498291,Left
3162.861083984375,18317,1,1756.0,1761.0,1999.0,1755.0,1757.0,1194.0,1745.0,1513.0,2.3696208000183105,-30.65833854675293,19.8718204498291,Left
3167.23291015625,18318,1,1747.0,1753.0,2063.0,1928.0,1759.0,0.0,40.0,1657.0,2.3696208000183105,-30.65833854675293,19.8718204498291,Left
3169.23291015625,18318,1,1749.0,1751.0,1805.0,1819.0,1752.0,0.0,463.0,1787.0,2.3696208000183105,-30.65833854675293,19.8718204498291,Left
3171.23291015625,18318,1,1757.0,1767.0,1903.0,1791.0,1741.0,1173.0,1529.0,1812.0,2.3696208000183105,-30.65833854675293,19.8718204498291,Left
3173.23291015625,18318,1,1763.0,1747.0,1308.0,1701.0,1755.0,2332.0,2485.0,1735.0,2.3696208000183105,-30.65833854675293,19.8718204498291,Left
3175.23291015625,18318,1,1751.0,1766.0,1735.0,1741.0,1753.0,2678.0,2858.0,1807.0,2.3696208000183105,-30.65833854675293,19.8718204498291,Left
3178.410888671875,18319,1,1757.0,1750.0,1868.0,1528.0,1750.0,3799.0,2603.0,1776.0,2.3696208000183105,-30.65833854675293,19.8718204498291,Left
3180.410888671875,18319,1,1763.0,1769.0,1502.0,1710.0,1752.0,3768.0,2403.0,1781.0,2.3696208000183105,-30.65833854675293,19.8718204498291,Left
3182.410888671875,18319,1,1759.0,1763.0,1629.0,1657.0,1754.0,2787.0,1993.0,1789.0,2.3696208000183105,-30.65833854675293,19.8718204498291,Left
3184.410888671875,18319,1,1765.0,1763.0,1455.0,1785.0,1741.0,1786.0,1592.0,1715.0,2.3696208000183105,-30.65833854675293,19.8718204498291,Left
3186.410888671875,18319,1,1756.0,1758.0,2408.0,1773.0,1741.0,1831.0,1575.0,1753.0,2.3696208000183105,-30.65833854675293,19.8718204498291,Left
3184.77880859375,18320,1,1763.0,1757.0,1687.0,1931.0,1755.0,222.0,102.0,1805.0,2.3696208000183105,-30.65833854675293,19.8718204498291,Left
3186.77880859375,18320,1,1765.0,1763.0,2200.0,2004.0,1755.0,428.0,541.0,1749.0,1.8057267665863037,-30.771181106567383,20.13806915283203,Left
3188.77880859375,18320,1,1735.0,1754.0,851.0,1882.0,1752.0,1659.0,1657.0,1843.0,1.8057267665863037,-30.771181106567383,20.13806915283203,Left
3190.77880859375,18320,1,1755.0,1763.0,1787.0,1765.0,1741.0,2393.0,2485.0,1753.0,1.8057267665863037,-30.771181106567383,20.13806915283203,Left
3192.77880859375,18320,1,1763.0,1767.0,1899.0,1720.0,1757.0,2478.0,2769.0,1549.0,1.8057267665863037,-30.771181106567383,20.13806915283203,Left
3199.718994140625,18321,1,1762.0,1753.0,1891.0,1605.0,1755.0,3796.0,2612.0,1773.0,1.8057267665863037,-30.771181106567383,20.13806915283203,Left
3201.718994140625,18321,1,1763.0,1764.0,1531.0,1563.0,1753.0,3786.0,2427.0,1623.0,1.8057267665863037,-30.771181106567383,20.13806915283203,Left
3203.718994140625,18321,1,1759.0,1763.0,1467.0,1724.0,1783.0,2521.0,2053.0,1591.0,1.8057267665863037,-30.771181106567383,20.13806915283203,Left
3205.718994140625,18321,1,1752.0,1765.0,2001.0,1899.0,1741.0,1422.0,1631.0,1592.0,1.8057267665863037,-30.771181106567383,20.13806915283203,Left
3207.718994140625,18321,1,1750.0,1765.0,1735.0,1912.0,1742.0,1111.0,1673.0,1791.0,1.8057267665863037,-30.771181106567383,20.13806915283203,Left
3204.8662109375,18322,1,1762.0,1764.0,2021.0,1899.0,1751.0,0.0,123.0,1816.0,1.8057267665863037,-30.771181106567383,20.13806915283203,Left
3206.8662109375,18322,1,1763.0,1765.0,1302.0,1765.0,1754.0,0.0,599.0,1883.0,1.8057267665863037,-30.771181106567383,20.13806915283203,Left
3208.8662109375,18322,1,1765.0,1767.0,1958.0,1741.0,1737.0,804.0,1711.0,1839.0,1.8057267665863037,-30.771181106567383,20.13806915283203,Left
3210.8662109375,18322,1,1765.0,1747.0,1710.0,1691.0,1755.0,1631.0,2515.0,1967.0,1.8057267665863037,-30.771181106567383,20.13806915283203,Left
3212.8662109375,18322,1,1759.0,1759.0,1775.0,1691.0,1755.0,2041.0,2789.0,1863.0,1.8057267665863037,-30.771181106567383,20.13806915283203,Left
3217.89013671875,18323,1,1762.0,1755.0,1567.0,1613.0,1753.0,3771.0,2573.0,1998.0,1.8057267665863037,-30.771181106567383,20.13806915283203,Left
3219.89013671875,18323,1,1762.0,1758.0,1932.0,1571.0,1756.0,3603.0,2407.0,1897.0,1.8057267665863037,-30.771181106567383,20.13806915283203,Left
3221.89013671875,18323,1,1759.0,1757.0,1494.0,1717.0,1741.0,2295.0,2043.0,1883.0,1.8057267665863037,-30.771181106567383,20.13806915283203,Left
3223.89013671875,18323,1,1763.0,1765.0,2777.0,1721.0,1755.0,1467.0,1652.0,1658.0,1.8057267665863037,-30.771181106567383,20.13806915283203,Left
3225.89013671875,18323,1,1755.0,1752.0,1627.0,1861.0,1741.0,553.0,1677.0,1759.0,1.8057267665863037,-30.771181106567383,20.13806915283203,Left
3229.075927734375,18324,1,1765.0,1761.0,1223.0,2042.0,1753.0,0.0,106.0,1656.0,1.8057267665863037,-30.771181106567383,20.13806915283203,Left
3231.075927734375,18324,1,1764.0,1767.0,1869.0,1939.0,1741.0,0.0,551.0,1843.0,1.8057267665863037,-30.771181106567383,20.13806915283203,Left
3233.075927734375,18324,1,1756.0,1767.0,2025.0,1781.0,1759.0,735.0,1679.0,1769.0,1.8057267665863037,-30.771181106567383,20.13806915283203,Left
3235.075927734375,18324,1,1767.0,1769.0,1669.0,1715.0,1751.0,1693.0,2472.0,1816.0,1.8057267665863037,-30.771181106567383,20.13806915283203,Left
3237.075927734375,18324,1,1765.0,1750.0,2287.0,1641.0,1755.0,2263.0,2765.0,1835.0,1.8057267665863037,-30.771181106567383,20.13806915283203,Left
3238.18017578125,18325,1,1765.0,1764.0,1723.0,1572.0,1747.0,3847.0,2581.0,1577.0,1.8057267665863037,-30.771181106567383,20.13806915283203,Left
3240.18017578125,18325,1,1758.0,1762.0,1723.0,1622.0,1757.0,3347.0,2394.0,1690.0,1.8057267665863037,-30.771181106567383,20.13806915283203,Left
3242.18017578125,18325,1,1769.0,1763.0,1807.0,1741.0,1756.0,2259.0,1971.0,1568.0,1.8057267665863037,-30.771181106567383,20.13806915283203,Left
3244.18017578125,18325,1,1763.0,1767.0,1787.0,1817.0,1753.0,1267.0,1645.0,1604.0,1.8057267665863037,-30.771181106567383,20.13806915283203,Left
3246.18017578125,18325,1,1763.0,1767.0,1739.0,1803.0,1751.0,1097.0,1735.0,1673.0,1.8057267665863037,-30.771181106567383,20.13806915283203,Left
3247.47900390625,18326,1,1749.0,1763.0,1627.0,1823.0,1750.0,0.0,95.0,1709.0,1.8057267665863037,-30.771181106567383,20.13806915283203,Left
3249.47900390625,18326,1,1757.0,1751.0,2095.0,1948.0,1743.0,0.0,573.0,1703.0,1.8057267665863037,-30.771181106567383,20.13806915283203,Left
3251.47900390625,18326,1,1764.0,1767.0,1718.0,1864.0,1754.0,697.0,1691.0,1641.0,1.8057267665863037,-30.771181106567383,20.13806915283203,Left
3253.47900390625,18326,1,1752.0,1751.0,1479.0,1719.0,1754.0,1331.0,2533.0,1560.0,2.046837568283081,-30.8237361907959,20.465953826904297,Left
3255.47900390625,18326,1,1763.0,1756.0,1751.0,1609.0,1741.0,1625.0,2774.0,1781.0,2.046837568283081,-30.8237361907959,20.465953826904297,Left
3258.94189453125,18327,1,1765.0,1751.0,1773.0,1431.0,1739.0,3768.0,2540.0,1699.0,2.046837568283081,-30.8237361907959,20.465953826904297,Left
3260.94189453125,18327,1,1763.0,1763.0,1741.0,1583.0,1755.0,3219.0,2364.0,1779.0,2.046837568283081,-30.8237361907959,20.465953826904297,Left
3262.94189453125,18327,1,1761.0,1763.0,1723.0,1707.0,1755.0,2250.0,1965.0,1891.0,2.046837568283081,-30.8237361907959,20.465953826904297,Left
3264.94189453125,18327,1,1757.0,1764.0,1626.0,1805.0,1753.0,1659.0,1655.0,1834.0,2.046837568283081,-30.8237361907959,20.465953826904297,Left
3266.94189453125,18327,1,1749.0,1767.0,1991.0,1837.0,1740.0,1468.0,1657.0,1893.0,2.046837568283081,-30.8237361907959,20.465953826904297,Left
3266.578857421875,18328,1,1749.0,1759.0,1896.0,1955.0,1741.0,0.0,134.0,1878.0,2.046837568283081,-30.8237361907959,20.465953826904297,Left
3268.578857421875,18328,1,1761.0,1763.0,1945.0,1967.0,1751.0,547.0,633.0,1807.0,2.046837568283081,-30.8237361907959,20.465953826904297,Left
3270.578857421875,18328,1,1764.0,1758.0,1500.0,1781.0,1749.0,1663.0,1771.0,1852.0,2.046837568283081,-30.8237361907959,20.465953826904297,Left
3272.578857421875,18328,1,1756.0,1766.0,1771.0,1679.0,1751.0,2580.0,2611.0,1822.0,2.046837568283081,-30.8237361907959,20.465953826904297,Left
3274.578857421875,18328,1,1763.0,1750.0,1919.0,1709.0,1756.0,2657.0,2761.0,1869.0,2.046837568283081,-30.8237361907959,20.465953826904297,Left
3275.18017578125,18329,1,1756.0,1741.0,1573.0,1506.0,1739.0,3859.0,2487.0,1959.0,2.046837568283081,-30.8237361907959,20.465953826904297,Left
3277.18017578125,18329,1,1764.0,1764.0,1497.0,1525.0,1751.0,3767.0,2358.0,1853.0,2.046837568283081,-30.8237361907959,20.465953826904297,Left
3279.18017578125,18329,1,1755.0,1751.0,2133.0,1699.0,1756.0,2655.0,1989.0,1685.0,2.046837568283081,-30.8237361907959,20.465953826904297,Left
3281.18017578125,18329,1,1759.0,1758.0,1691.0,1829.0,1755.0,1352.0,1653.0,1752.0,2.046837568283081,-30.8237361907959,20.465953826904297,Left
3283.18017578125,18329,1,1743.0,1752.0,1661.0,1871.0,1755.0,1179.0,1659.0,1605.0,2.046837568283081,-30.8237361907959,20.465953826904297,Left
3284.64208984375,18330,1,1749.0,1747.0,1647.0,1983.0,1752.0,0.0,125.0,1543.0,2.046837568283081,-30.8237361907959,20.465953826904297,Left
3286.64208984375,18330,1,1763.0,1751.0,1813.0,1989.0,1759.0,261.0,559.0,1692.0,2.046837568283081,-30.8237361907959,20.465953826904297,Left
3288.64208984375,18330,1,1765.0,1765.0,2507.0,1943.0,1767.0,1479.0,1735.0,1767.0,2.046837568283081,-30.8237361907959,20.465953826904297,Left
3290.64208984375,18330,1,1752.0,1765.0,943.0,1799.0,1751.0,2199.0,2531.0,1725.0,2.046837568283081,-30.8237361907959,20.465953826904297,Left
3292.64208984375,18330,1,1763.0,1763.0,2331.0,1867.0,1755.0,2476.0,2765.0,1509.0,2.046837568283081,-30.8237361907959,20.465953826904297,Left
3299.023193359375,18331,1,1747.0,1765.0,1777.0,1513.0,1757.0,3795.0,2532.0,1699.0,2.046837568283081,-30.8237361907959,20.465953826904297,Left
3301.023193359375,18331,1,1762.0,1767.0,1507.0,1580.0,1755.0,3469.0,2365.0,1629.0,2.046837568283081,-30.8237361907959,20.465953826904297,Left
3303.023193359375,18331,1,1763.0,1751.0,1656.0,1725.0,1740.0,2266.0,1915.0,1783.0,2.046837568283081,-30.8237361907959,20.465953826904297,Left
3305.023193359375,18331,1,1752.0,1767.0,2139.0,1815.0,1752.0,1613.0,1686.0,1703.0,2.046837568283081,-30.8237361907959,20.465953826904297,Left
3307.023193359375,18331,1,1749.0,1767.0,1623.0,1775.0,1751.0,1259.0,1757.0,1844.0,2.046837568283081,-30.8237361907959,20.465953826904297,Left
3304.71923828125,18332,1,1763.0,1765.0,1945.0,1829.0,1741.0,0.0,153.0,1701.0,2.046837568283081,-30.8237361907959,20.465953826904297,Left
3306.71923828125,18332,1,1749.0,1749.0,1501.0,1853.0,1740.0,281.0,635.0,1799.0,2.046837568283081,-30.8237361907959,20.465953826904297,Left
3308.71923828125,18332,1,1764.0,1749.0,1531.0,1854.0,1752.0,1513.0,1700.0,1597.0,2.046837568283081,-30.8237361907959,20.465953826904297,Left
3310.71923828125,18332,1,1763.0,1749.0,2058.0,1767.0,1757.0,1977.0,2511.0,1810.0,2.046837568283081,-30.8237361907959,20.465953826904297,Left
3312.71923828125,18332,1,1763.0,1762.0,1833.0,1675.0,1758.0,2079.0,2779.0,1625.0,2.046837568283081,-30.8237361907959,20.465953826904297,Left
3316.921875,18333,1,1762.0,1773.0,816.0,1547.0,1753.0,3797.0,2537.0,1865.0,2.046837568283081,-30.8237361907959,20.465953826904297,Left
3318.921875,18333,1,1765.0,1749.0,2340.0,1519.0,1750.0,2962.0,2377.0,1839.0,2.010011672973633,-31.01838493347168,20.933002471923828,Left
3320.921875,18333,1,1763.0,1769.0,2251.0,1699.0,1754.0,1574.0,1963.0,1817.0,2.010011672973633,-31.01838493347168,20.933002471923828,Left
3322.921875,18333,1,1762.0,1758.0,1321.0,1783.0,1757.0,781.0,1591.0,1784.0,2.010011672973633,-31.01838493347168,20.933002471923828,Left
3324.921875,18333,1,1759.0,1767.0,1860.0,1709.0,1741.0,536.0,1673.0,1683.0,2.010011672973633,-31.01838493347168,20.933002471923828,Left
3327.35400390625,18334,1,1749.0,1752.0,2131.0,1959.0,1755.0,0.0,206.0,1637.0,2.010011672973633,-31.01838493347168,20.933002471923828,Left
3329.35400390625,18334,1,1765.0,1762.0,1010.0,1965.0,1741.0,0.0,726.0,1831.0,2.010011672973633,-31.01838493347168,20.933002471923828,Left
3331.35400390625,18334,1,1766.0,1767.0,2099.0,1814.0,1753.0,909.0,1864.0,1875.0,2.010011672973633,-31.01838493347168,20.933002471923828,Left
3333.35400390625,18334,1,1757.0,1767.0,1324.0,1781.0,1755.0,2071.0,2568.0,1671.0,2.010011672973633,-31.01838493347168,20.933002471923828,Left
3335.35400390625,18334,1,1747.0,1767.0,2363.0,1741.0,1752.0,2619.0,2724.0,1653.0,2.010011672973633,-31.01838493347168,20.933002471923828,Left
3337.513916015625,18335,1,1749.0,1756.0,1693.0,1605.0,1758.0,3795.0,2493.0,1901.0,2.010011672973633,-31.01838493347168,20.933002471923828,Left
3339.513916015625,18335,1,1762.0,1763.0,2009.0,1575.0,1741.0,3775.0,2345.0,1914.0,2.010011672973633,-31.01838493347168,20.933002471923828,Left
3341.513916015625,18335,1,1763.0,1769.0,1518.0,1707.0,1757.0,3123.0,1861.0,1686.0,2.010011672973633,-31.01838493347168,20.933002471923828,Left
3343.513916015625,18335,1,1766.0,1767.0,1747.0,1786.0,1755.0,2111.0,1573.0,1618.0,2.010011672973633,-31.01838493347168,20.933002471923828,Left
3345.513916015625,18335,1,1763.0,1768.0,1276.0,1817.0,1743.0,1469.0,1626.0,1806.0,2.010011672973633,-31.01838493347168,20.933002471923828,Left
3350.445068359375,18336,1,1747.0,1764.0,1991.0,1930.0,1753.0,0.0,236.0,1733.0,2.010011672973633,-31.01838493347168,20.933002471923828,Left
3352.445068359375,18336,1,1766.0,1759.0,2021.0,1900.0,1741.0,287.0,671.0,1687.0,2.010011672973633,-31.01838493347168,20.933002471923828,Left
3354.445068359375,18336,1,1763.0,1766.0,1517.0,1854.0,1743.0,1203.0,1799.0,1672.0,2.010011672973633,-31.01838493347168,20.933002471923828,Left
3356.445068359375,18336,1,1765.0,1759.0,2414.0,1709.0,1757.0,2168.0,2600.0,1801.0,2.010011672973633,-31.01838493347168,20.933002471923828,Left
3358.445068359375,18336,1,1767.0,1765.0,1477.0,1671.0,1741.0,2299.0,2749.0,1763.0,2.010011672973633,-31.01838493347168,20.933002471923828,Left
3357.40185546875,18337,1,1749.0,1757.0,1725.0,1543.0,1755.0,3798.0,2517.0,1655.0,2.010011672973633,-31.01838493347168,20.933002471923828,Left
3359.40185546875,18337,1,1741.0,1733.0,1567.0,1575.0,1751.0,3417.0,2355.0,1625.0,2.010011672973633,-31.01838493347168,20.933002471923828,Left
3361.40185546875,18337,1,1756.0,1759.0,1759.0,1679.0,1740.0,2215.0,1931.0,1530.0,2.010011672973633,-31.01838493347168,20.933002471923828,Left
3363.40185546875,18337,1,1749.0,1767.0,1878.0,1787.0,1751.0,1257.0,1647.0,1879.0,2.010011672973633,-31.01838493347168,20.933002471923828,Left
3365.40185546875,18337,1,1751.0,1751.0,1493.0,1715.0,1755.0,1574.0,1637.0,1554.0,2.010011672973633,-31.01838493347168,20.933002471923828,Left
3366.23388671875,18338,1,1759.0,1741.0,2174.0,2043.0,1757.0,180.0,231.0,1617.0,2.010011672973633,-31.01838493347168,20.933002471923828,Left
3368.23388671875,18338,1,1763.0,1752.0,1941.0,2015.0,1751.0,871.0,679.0,1771.0,2.010011672973633,-31.01838493347168,20.933002471923828,Left
3370.23388671875,18338,1,1764.0,1765.0,1401.0,1880.0,1755.0,1897.0,1883.0,1929.0,2.010011672973633,-31.01838493347168,20.933002471923828,Left
3372.23388671875,18338,1,1753.0,1753.0,2019.0,1725.0,1752.0,2527.0,2645.0,1877.0,2.010011672973633,-31.01838493347168,20.933002471923828,Left
3374.23388671875,18338,1,1758.0,1765.0,2174.0,1763.0,1740.0,2617.0,2710.0,1919.0,2.010011672973633,-31.01838493347168,20.933002471923828,Left
3374.884033203125,18339,1,1751.0,1721.0,1578.0,1581.0,1703.0,3911.0,2444.0,1920.0,2.010011672973633,-31.01838493347168,20.933002471923828,Left
3376.884033203125,18339,1,1757.0,1750.0,1961.0,1735.0,1743.0,3199.0,2327.0,1817.0,2.010011672973633,-31.01838493347168,20.933002471923828,Left
3378.884033203125,18339,1,1759.0,1765.0,1443.0,1624.0,1758.0,2167.0,1885.0,1684.0,2.010011672973633,-31.01838493347168,20.933002471923828,Left
3380.884033203125,18339,1,1752.0,1757.0,1687.0,1753.0,1757.0,1614.0,1656.0,1721.0,2.2213306427001953,-31.029979705810547,21.177356719970703,Left
3382.884033203125,18339,1,1749.0,1751.0,1799.0,1759.0,1755.0,1275.0,1547.0,1459.0,2.2213306427001953,-31.029979705810547,21.177356719970703,Left
3384.99609375,18340,1,1767.0,1738.0,1547.0,1863.0,1749.0,0.0,234.0,1431.0,2.2213306427001953,-31.029979705810547,21.177356719970703,Left
3386.99609375,18340,1,1752.0,1767.0,1775.0,1869.0,1755.0,115.0,761.0,1407.0,2.2213306427001953,-31.029979705810547,21.177356719970703,Left
3388.99609375,18340,1,1751.0,1766.0,2029.0,1770.0,1753.0,1111.0,1974.0,1592.0,2.2213306427001953,-31.029979705810547,21.177356719970703,Left
3390.99609375,18340,1,1749.0,1767.0,1843.0,1746.0,1759.0,1716.0,2583.0,1753.0,2.2213306427001953,-31.029979705810547,21.177356719970703,Left
3392.99609375,18340,1,1767.0,1765.0,1703.0,1704.0,1757.0,1745.0,2695.0,1801.0,2.2213306427001953,-31.029979705810547,21.177356719970703,Left
3398.56689453125,18341,1,1757.0,1756.0,2146.0,1627.0,1752.0,3789.0,2463.0,1823.0,2.2213306427001953,-31.029979705810547,21.177356719970703,Left
3400.56689453125,18341,1,1763.0,1767.0,1251.0,1703.0,1739.0,2957.0,2315.0,1835.0,2.2213306427001953,-31.029979705810547,21.177356719970703,Left
3402.56689453125,18341,1,1765.0,1765.0,1851.0,1741.0,1755.0,1821.0,1877.0,1886.0,2.2213306427001953,-31.029979705810547,21.177356719970703,Left
3404.56689453125,18341,1,1757.0,1763.0,2389.0,1693.0,1742.0,1449.0,1577.0,1675.0,2.2213306427001953,-31.029979705810547,21.177356719970703,Left
3406.56689453125,18341,1,1764.0,1763.0,1673.0,1781.0,1753.0,1117.0,1435.0,1721.0,2.2213306427001953,-31.029979705810547,21.177356719970703,Left
3409.062744140625,18342,1,1757.0,1765.0,1626.0,1955.0,1753.0,0.0,262.0,1770.0,2.2213306427001953,-31.029979705810547,21.177356719970703,Left
3411.062744140625,18342,1,1742.0,1751.0,1647.0,2007.0,1757.0,0.0,777.0,1832.0,2.2213306427001953,-31.029979705810547,21.177356719970703,Left
3413.062744140625,18342,1,1752.0,1766.0,2019.0,1874.0,1753.0,1117.0,1959.0,1804.0,2.2213306427001953,-31.029979705810547,21.177356719970703,Left
3415.062744140625,18342,1,1762.0,1765.0,1567.0,1747.0,1741.0,1699.0,2678.0,1894.0,2.2213306427001953,-31.029979705810547,21.177356719970703,Left
3417.062744140625,18342,1,1763.0,1750.0,1889.0,1692.0,1743.0,2263.0,2683.0,2072.0,2.2213306427001953,-31.029979705810547,21.177356719970703,Left
3417.65869140625,18343,1,1765.0,1769.0,1637.0,1529.0,1740.0,3804.0,2461.0,2011.0,2.2213306427001953,-31.029979705810547,21.177356719970703,Left
3419.65869140625,18343,1,1765.0,1751.0,2011.0,1637.0,1755.0,2965.0,2315.0,1869.0,2.2213306427001953,-31.029979705810547,21.177356719970703,Left
3421.65869140625,18343,1,1761.0,1765.0,1225.0,1693.0,1757.0,1975.0,1783.0,1851.0,2.2213306427001953,-31.029979705810547,21.177356719970703,Left
3423.65869140625,18343,1,1761.0,1758.0,1725.0,1758.0,1757.0,1244.0,1515.0,1724.0,2.2213306427001953,-31.029979705810547,21.177356719970703,Left
3425.65869140625,18343,1,1753.0,1767.0,1809.0,1699.0,1751.0,1129.0,1367.0,1689.0,2.2213306427001953,-31.029979705810547,21.177356719970703,Left
3428.35986328125,18344,1,1765.0,1765.0,1784.0,1819.0,1753.0,0.0,303.0,1671.0,2.2213306427001953,-31.029979705810547,21.177356719970703,Left
3430.35986328125,18344,1,1759.0,1757.0,1805.0,1853.0,1752.0,483.0,787.0,1676.0,2.2213306427001953,-31.029979705810547,21.177356719970703,Left
3432.35986328125,18344,1,1747.0,1751.0,1690.0,1803.0,1755.0,1555.0,2015.0,1677.0,2.2213306427001953,-31.029979705810547,21.177356719970703,Left
3434.35986328125,18344,1,1764.0,1765.0,1781.0,1719.0,1753.0,2457.0,2740.0,1639.0,2.2213306427001953,-31.029979705810547,21.177356719970703,Left
3436.35986328125,18344,1,1757.0,1765.0,1935.0,1746.0,1753.0,2747.0,2685.0,1703.0,2.2213306427001953,-31.029979705810547,21.177356719970703,Left
3436.644775390625,18345,1,1763.0,1749.0,1553.0,1641.0,1755.0,3784.0,2461.0,1815.0,2.2213306427001953,-31.029979705810547,21.177356719970703,Left
3438.644775390625,18345,1,1763.0,1759.0,2125.0,1661.0,1752.0,3540.0,2316.0,1753.0,2.2213306427001953,-31.029979705810547,21.177356719970703,Left
3440.644775390625,18345,1,1749.0,1765.0,1874.0,1759.0,1741.0,2121.0,1907.0,1661.0,2.2213306427001953,-31.029979705810547,21.177356719970703,Left
3442.644775390625,18345,1,1762.0,1763.0,1113.0,1783.0,1755.0,1568.0,1751.0,1657.0,2.2213306427001953,-31.029979705810547,21.177356719970703,Left
3444.644775390625,18345,1,1764.0,1759.0,2331.0,1801.0,1756.0,1259.0,1407.0,1628.0,2.2213306427001953,-31.029979705810547,21.177356719970703,Left
3448.481201171875,18346,1,1747.0,1743.0,1747.0,1981.0,1753.0,0.0,231.0,1557.0,2.2213306427001953,-31.029979705810547,21.177356719970703,Left
3450.481201171875,18346,1,1763.0,1758.0,1755.0,1907.0,1755.0,509.0,808.0,1593.0,2.4572553634643555,-31.076128005981445,21.284372329711914,Left
3452.481201171875,18346,1,1767.0,1751.0,1607.0,1833.0,1757.0,1597.0,2008.0,1683.0,2.4572553634643555,-31.076128005981445,21.284372329711914,Left
3454.481201171875,18346,1,1763.0,1759.0,1555.0,1743.0,1755.0,2261.0,2671.0,1673.0,2.4572553634643555,-31.076128005981445,21.284372329711914,Left
3456.481201171875,18346,1,1763.0,1749.0,1811.0,1704.0,1747.0,2479.0,2620.0,1718.0,2.4572553634643555,-31.076128005981445,21.284372329711914,Left
3457.302978515625,18347,1,1755.0,1750.0,1900.0,1451.0,1757.0,3793.0,2377.0,1783.0,2.4572553634643555,-31.076128005981445,21.284372329711914,Left
3459.302978515625,18347,1,1765.0,1759.0,1903.0,1627.0,1743.0,3093.0,2277.0,1771.0,2.4572553634643555,-31.076128005981445,21.284372329711914,Left
3461.302978515625,18347,1,1766.0,1758.0,1753.0,1762.0,1757.0,1973.0,1816.0,1779.0,2.4572553634643555,-31.076128005981445,21.284372329711914,Left
3463.302978515625,18347,1,1749.0,1765.0,1861.0,1823.0,1754.0,1435.0,1655.0,1847.0,2.4572553634643555,-31.076128005981445,21.284372329711914,Left
3465.302978515625,18347,1,1767.0,1763.0,1430.0,1771.0,1755.0,1033.0,1243.0,1885.0,2.4572553634643555,-31.076128005981445,21.284372329711914,Left
3468.44091796875,18348,1,1759.0,1751.0,1995.0,2019.0,1753.0,0.0,253.0,1675.0,2.4572553634643555,-31.076128005981445,21.284372329711914,Left
3470.44091796875,18348,1,1765.0,1751.0,1674.0,1959.0,1739.0,348.0,861.0,1675.0,2.4572553634643555,-31.076128005981445,21.284372329711914,Left
3472.44091796875,18348,1,1763.0,1763.0,1435.0,1901.0,1741.0,1491.0,2037.0,1843.0,2.4572553634643555,-31.076128005981445,21.284372329711914,Left
3474.44091796875,18348,1,1765.0,1763.0,2041.0,1711.0,1756.0,2023.0,2643.0,1765.0,2.4572553634643555,-31.076128005981445,21.284372329711914,Left
3476.44091796875,18348,1,1757.0,1763.0,1477.0,1660.0,1751.0,2157.0,2621.0,1699.0,2.4572553634643555,-31.076128005981445,21.284372329711914,Left
3479.164794921875,18349,1,1766.0,1753.0,1927.0,1542.0,1755.0,3702.0,2392.0,1879.0,2.4572553634643555,-31.076128005981445,21.284372329711914,Left
3481.164794921875,18349,1,1765.0,1749.0,1557.0,1607.0,1751.0,2483.0,2264.0,1678.0,2.4572553634643555,-31.076128005981445,21.284372329711914,Left
3483.164794921875,18349,1,1762.0,1763.0,1997.0,1670.0,1763.0,1239.0,1829.0,1655.0,2.4572553634643555,-31.076128005981445,21.284372329711914,Left
3485.164794921875,18349,1,1765.0,1765.0,1294.0,1723.0,1757.0,686.0,1659.0,1728.0,2.4572553634643555,-31.076128005981445,21.284372329711914,Left
3487.164794921875,18349,1,1762.0,1757.0,1935.0,1819.0,1754.0,184.0,1169.0,1781.0,2.4572553634643555,-31.076128005981445,21.284372329711914,Left
3492.85791015625,18350,1,1759.0,1751.0,1748.0,1955.0,1755.0,0.0,292.0,1709.0,2.4572553634643555,-31.076128005981445,21.284372329711914,Left
3494.85791015625,18350,1,1763.0,1738.0,2023.0,1773.0,1740.0,0.0,910.0,1879.0,2.4572553634643555,-31.076128005981445,21.284372329711914,Left
3496.85791015625,18350,1,1764.0,1767.0,1696.0,1763.0,1739.0,879.0,2153.0,1927.0,2.4572553634643555,-31.076128005981445,21.284372329711914,Left
3498.85791015625,18350,1,1764.0,1759.0,1715.0,1715.0,1753.0,1747.0,2746.0,1833.0,2.4572553634643555,-31.076128005981445,21.284372329711914,Left
3500.85791015625,18350,1,1756.0,1765.0,1803.0,1746.0,1756.0,2713.0,2589.0,1823.0,2.4572553634643555,-31.076128005981445,21.284372329711914,Left
3498.03173828125,18351,1,1755.0,1765.0,1577.0,1619.0,1739.0,3767.0,2381.0,1830.0,2.4572553634643555,-31.076128005981445,21.284372329711914,Left
3500.03173828125,18351,1,1762.0,1759.0,2311.0,1677.0,1753.0,3375.0,2234.0,1753.0,2.4572553634643555,-31.076128005981445,21.284372329711914,Left
3502.03173828125,18351,1,1765.0,1765.0,1051.0,1663.0,1776.0,2003.0,1715.0,1702.0,2.4572553634643555,-31.076128005981445,21.284372329711914,Left
3504.03173828125,18351,1,1757.0,1757.0,1784.0,1743.0,1752.0,1592.0,1575.0,1661.0,2.4572553634643555,-31.076128005981445,21.284372329711914,Left
3506.03173828125,18351,1,1764.0,1765.0,2055.0,1771.0,1755.0,1352.0,1001.0,1639.0,2.4572553634643555,-31.076128005981445,21.284372329711914,Left
3508.119140625,18352,1,1764.0,1739.0,1928.0,1960.0,1753.0,213.0,331.0,1691.0,2.4572553634643555,-31.076128005981445,21.284372329711914,Left
3510.119140625,18352,1,1736.0,1765.0,1524.0,1801.0,1753.0,959.0,969.0,1755.0,2.4572553634643555,-31.076128005981445,21.284372329711914,Left
3512.119140625,18352,1,1751.0,1765.0,1803.0,1733.0,1740.0,1937.0,2213.0,1735.0,2.4572553634643555,-31.076128005981445,21.284372329711914,Left
3514.119140625,18352,1,1767.0,1765.0,2095.0,1748.0,1755.0,2539.0,2761.0,1823.0,2.233757495880127,-31.158565521240234,21.289154052734375,Left
3516.119140625,18352,1,1751.0,1766.0,1363.0,1765.0,1743.0,3197.0,2587.0,1769.0,2.233757495880127,-31.158565521240234,21.289154052734375,Left
3521.76220703125,18353,1,1752.0,1761.0,1739.0,1637.0,1750.0,3797.0,2376.0,1811.0,2.233757495880127,-31.158565521240234,21.289154052734375,Left
3523.76220703125,18353,1,1763.0,1763.0,1902.0,1687.0,1741.0,3494.0,2235.0,1813.0,2.233757495880127,-31.158565521240234,21.289154052734375,Left
3525.76220703125,18353,1,1762.0,1763.0,1772.0,1767.0,1751.0,1979.0,1749.0,1740.0,2.233757495880127,-31.158565521240234,21.289154052734375,Left
3527.76220703125,18353,1,1766.0,1764.0,1641.0,1849.0,1755.0,1293.0,1583.0,1608.0,2.233757495880127,-31.158565521240234,21.289154052734375,Left
3529.76220703125,18353,1,1763.0,1763.0,2027.0,1891.0,1756.0,861.0,1031.0,1681.0,2.233757495880127,-31.158565521240234,21.289154052734375,Left
3530.747802734375,18354,1,1747.0,1765.0,1694.0,1977.0,1739.0,0.0,320.0,1591.0,2.233757495880127,-31.158565521240234,21.289154052734375,Left
3532.747802734375,18354,1,1761.0,1767.0,1787.0,1941.0,1753.0,467.0,867.0,1735.0,2.233757495880127,-31.158565521240234,21.289154052734375,Left
3534.747802734375,18354,1,1765.0,1759.0,2109.0,1815.0,1739.0,1837.0,2187.0,1757.0,2.233757495880127,-31.158565521240234,21.289154052734375,Left
3536.747802734375,18354,1,1755.0,1749.0,1609.0,1672.0,1752.0,2389.0,2790.0,1715.0,2.233757495880127,-31.158565521240234,21.289154052734375,Left
3538.747802734375,18354,1,1758.0,1768.0,1750.0,1701.0,1755.0,2890.0,2602.0,1791.0,2.233757495880127,-31.158565521240234,21.289154052734375,Left
3542.26904296875,18355,1,1757.0,1745.0,1803.0,1549.0,1740.0,3794.0,2360.0,1813.0,2.233757495880127,-31.158565521240234,21.289154052734375,Left
3544.26904296875,18355,1,1762.0,1759.0,1705.0,1589.0,1751.0,3549.0,2252.0,1823.0,2.233757495880127,-31.158565521240234,21.289154052734375,Left
3546.26904296875,18355,1,1763.0,1768.0,1755.0,1674.0,1748.0,2171.0,1691.0,1835.0,2.233757495880127,-31.158565521240234,21.289154052734375,Left
3548.26904296875,18355,1,1752.0,1751.0,1467.0,1727.0,1757.0,1679.0,1644.0,1899.0,2.233757495880127,-31.158565521240234,21.289154052734375,Left
3550.26904296875,18355,1,1765.0,1765.0,1551.0,1819.0,1752.0,1172.0,943.0,1881.0,2.233757495880127,-31.158565521240234,21.289154052734375,Left
3545.240234375,18356,1,1763.0,1767.0,2025.0,2008.0,1753.0,11.0,335.0,1781.0,2.233757495880127,-31.158565521240234,21.289154052734375,Left
3547.240234375,18356,1,1764.0,1765.0,1483.0,1971.0,1755.0,905.0,1048.0,1779.0,2.233757495880127,-31.158565521240234,21.289154052734375,Left
3549.240234375,18356,1,1751.0,1767.0,1589.0,1723.0,1769.0,1927.0,2232.0,1843.0,2.233757495880127,-31.158565521240234,21.289154052734375,Left
3551.240234375,18356,1,1762.0,1749.0,2007.0,1681.0,1741.0,2349.0,2709.0,1887.0,2.233757495880127,-31.158565521240234,21.289154052734375,Left
3553.240234375,18356,1,1757.0,1767.0,2220.0,1661.0,1749.0,2921.0,2575.0,1706.0,2.233757495880127,-31.158565521240234,21.289154052734375,Left
3566.5048828125,18357,1,1765.0,1768.0,1707.0,1397.0,1751.0,3795.0,2363.0,1709.0,2.233757495880127,-31.158565521240234,21.289154052734375,Left
3568.5048828125,18357,1,1765.0,1766.0,1645.0,1582.0,1743.0,3343.0,2249.0,1763.0,2.233757495880127,-31.158565521240234,21.289154052734375,Left
3570.5048828125,18357,1,1763.0,1767.0,1753.0,1737.0,1755.0,2297.0,1780.0,1754.0,2.233757495880127,-31.158565521240234,21.289154052734375,Left
3572.5048828125,18357,1,1763.0,1766.0,1738.0,1767.0,1741.0,1684.0,1643.0,1837.0,2.233757495880127,-31.158565521240234,21.289154052734375,Left
3574.5048828125,18357,1,1748.0,1764.0,1611.0,1837.0,1751.0,1012.0,797.0,1771.0,2.233757495880127,-31.158565521240234,21.289154052734375,Left
3567.232177734375,18358,1,1751.0,1751.0,1401.0,1940.0,1755.0,0.0,313.0,1626.0,2.233757495880127,-31.158565521240234,21.289154052734375,Left
3569.232177734375,18358,1,1765.0,1753.0,2120.0,1895.0,1755.0,701.0,965.0,1579.0,2.233757495880127,-31.158565521240234,21.289154052734375,Left
3571.232177734375,18358,1,1763.0,1759.0,1780.0,1813.0,1755.0,1671.0,2149.0,1755.0,2.233757495880127,-31.158565521240234,21.289154052734375,Left
3573.232177734375,18358,1,1744.0,1768.0,1792.0,1765.0,1746.0,1881.0,2680.0,1706.0,2.233757495880127,-31.158565521240234,21.289154052734375,Left
3575.232177734375,18358,1,1755.0,1766.0,1849.0,1759.0,1757.0,2567.0,2573.0,1693.0,2.233757495880127,-31.158565521240234,21.289154052734375,Left
3579.39013671875,18359,1,1755.0,1767.0,1657.0,1580.0,1741.0,3707.0,2368.0,1757.0,2.233757495880127,-31.158565521240234,21.289154052734375,Left
3581.39013671875,18359,1,1763.0,1766.0,1766.0,1479.0,1719.0,2430.0,2245.0,1817.0,2.16462779045105,-31.22197723388672,21.311288833618164,Left
3583.39013671875,18359,1,1763.0,1767.0,1797.0,1707.0,1751.0,1139.0,1741.0,1960.0,2.16462779045105,-31.22197723388672,21.311288833618164,Left
3585.39013671875,18359,1,1756.0,1758.0,1877.0,1774.0,1741.0,349.0,1576.0,1929.0,2.16462779045105,-31.22197723388672,21.311288833618164,Left
3587.39013671875,18359,1,1765.0,1749.0,1736.0,1802.0,1751.0,0.0,667.0,1843.0,2.16462779045105,-31.22197723388672,21.311288833618164,Left
3590.7490234375,18360,1,1751.0,1765.0,1774.0,1926.0,1742.0,0.0,345.0,1704.0,2.16462779045105,-31.22197723388672,21.311288833618164,Left
3592.7490234375,18360,1,1748.0,1749.0,1625.0,1968.0,1755.0,0.0,1016.0,1556.0,2.16462779045105,-31.22197723388672,21.311288833618164,Left
3594.7490234375,18360,1,1749.0,1746.0,1596.0,1815.0,1751.0,664.0,2277.0,1587.0,2.16462779045105,-31.22197723388672,21.311288833618164,Left
3596.7490234375,18360,1,1765.0,1763.0,1623.0,1718.0,1740.0,1553.0,2782.0,1640.0,2.16462779045105,-31.22197723388672,21.311288833618164,Left
3598.7490234375,18360,1,1757.0,1757.0,1891.0,1645.0,1746.0,2821.0,2571.0,1619.0,2.16462779045105,-31.22197723388672,21.311288833618164,Left
3601.01708984375,18361,1,1765.0,1766.0,1741.0,1545.0,1754.0,3797.0,2377.0,1691.0,2.16462779045105,-31.22197723388672,21.311288833618164,Left
3603.01708984375,18361,1,1757.0,1753.0,1893.0,1679.0,1756.0,3545.0,2205.0,1773.0,2.16462779045105,-31.22197723388672,21.311288833618164,Left
3605.01708984375,18361,1,1756.0,1763.0,1803.0,1837.0,1751.0,2095.0,1670.0,1836.0,2.16462779045105,-31.22197723388672,21.311288833618164,Left
3607.01708984375,18361,1,1749.0,1763.0,1669.0,1846.0,1752.0,1645.0,1581.0,1815.0,2.16462779045105,-31.22197723388672,21.311288833618164,Left
3609.01708984375,18361,1,1749.0,1765.0,1705.0,1876.0,1755.0,1050.0,733.0,1851.0,2.16462779045105,-31.22197723388672,21.311288833618164,Left
3609.610107421875,18362,1,1764.0,1750.0,1844.0,2074.0,1757.0,0.0,360.0,1839.0,2.16462779045105,-31.22197723388672,21.311288833618164,Left
3611.610107421875,18362,1,1764.0,1751.0,1976.0,1900.0,1727.0,819.0,1055.0,1750.0,2.16462779045105,-31.22197723388672,21.311288833618164,Left
3613.610107421875,18362,1,1757.0,1758.0,1359.0,1738.0,1751.0,1577.0,2293.0,1705.0,2.16462779045105,-31.22197723388672,21.311288833618164,Left
3615.610107421875,18362,1,1763.0,1765.0,2274.0,1711.0,1753.0,2040.0,2792.0,1757.0,2.16462779045105,-31.22197723388672,21.311288833618164,Left
3617.610107421875,18362,1,1757.0,1763.0,1629.0,1700.0,1747.0,2959.0,2543.0,1957.0,2.16462779045105,-31.22197723388672,21.311288833618164,Left
3618.286865234375,18363,1,1749.0,1765.0,1709.0,1560.0,1751.0,3799.0,2377.0,1831.0,2.16462779045105,-31.22197723388672,21.311288833618164,Left
3620.286865234375,18363,1,1763.0,1768.0,1906.0,1643.0,1727.0,2876.0,2197.0,1808.0,2.16462779045105,-31.22197723388672,21.311288833618164,Left
3622.286865234375,18363,1,1762.0,1766.0,1497.0,1758.0,1752.0,2024.0,1743.0,1776.0,2.16462779045105,-31.22197723388672,21.311288833618164,Left
3624.286865234375,18363,1,1750.0,1765.0,1851.0,1775.0,1747.0,1675.0,1618.0,1787.0,2.16462779045105,-31.22197723388672,21.311288833618164,Left
3626.286865234375,18363,1,1765.0,1765.0,1651.0,1798.0,1754.0,951.0,639.0,1673.0,2.16462779045105,-31.22197723388672,21.311288833618164,Left
3627.697021484375,18364,1,1766.0,1767.0,1878.0,1893.0,1741.0,0.0,317.0,1685.0,2.16462779045105,-31.22197723388672,21.311288833618164,Left
3629.697021484375,18364,1,1755.0,1747.0,1695.0,1887.0,1756.0,679.0,1019.0,1779.0,2.16462779045105,-31.22197723388672,21.311288833618164,Left
3631.697021484375,18364,1,1756.0,1765.0,1957.0,1815.0,1741.0,1941.0,2211.0,1861.0,2.16462779045105,-31.22197723388672,21.311288833618164,Left
3633.697021484375,18364,1,1763.0,1764.0,1909.0,1734.0,1745.0,2375.0,2728.0,1965.0,2.16462779045105,-31.22197723388672,21.311288833618164,Left
3635.697021484375,18364,1,1763.0,1763.0,1591.0,1669.0,1755.0,3145.0,2569.0,1705.0,2.16462779045105,-31.22197723388672,21.311288833618164,Left
3647.320068359375,18365,1,1764.0,1765.0,1852.0,1560.0,1756.0,3785.0,2361.0,1931.0,2.16462779045105,-31.22197723388672,21.311288833618164,Left
3649.320068359375,18365,1,1749.0,1757.0,1597.0,1638.0,1759.0,3005.0,2221.0,1779.0,2.16462779045105,-31.22197723388672,21.311288833618164,Left
3651.320068359375,18365,1,1766.0,1767.0,1594.0,1753.0,1757.0,2007.0,1673.0,1738.0,2.1386971473693848,-31.418582916259766,21.354167938232422,Left
3653.320068359375,18365,1,1764.0,1751.0,1613.0,1693.0,1756.0,1620.0,1683.0,1643.0,2.1386971473693848,-31.418582916259766,21.354167938232422,Left
3655.320068359375,18365,1,1761.0,1763.0,1926.0,1855.0,1754.0,859.0,569.0,1497.0,2.1386971473693848,-31.418582916259766,21.354167938232422,Left
3648.05419921875,18366,1,1759.0,1767.0,1723.0,1965.0,1741.0,0.0,397.0,1445.0,2.1386971473693848,-31.418582916259766,21.354167938232422,Left
3650.05419921875,18366,1,1763.0,1751.0,2091.0,1963.0,1755.0,845.0,1111.0,1599.0,2.1386971473693848,-31.418582916259766,21.354167938232422,Left
3652.05419921875,18366,1,1765.0,1763.0,1337.0,1813.0,1756.0,1766.0,2394.0,1838.0,2.1386971473693848,-31.418582916259766,21.354167938232422,Left
3654.05419921875,18366,1,1758.0,1764.0,1828.0,1675.0,1755.0,2317.0,2724.0,1741.0,2.1386971473693848,-31.418582916259766,21.354167938232422,Left
3656.05419921875,18366,1,1762.0,1752.0,1704.0,1588.0,1751.0,3255.0,2523.0,1708.0,2.1386971473693848,-31.418582916259766,21.354167938232422,Left
3658.446044921875,18367,1,1753.0,1767.0,1635.0,1396.0,1719.0,3986.0,2326.0,1582.0,2.1386971473693848,-31.418582916259766,21.354167938232422,Left
