Timestamp_ms,Packet_Number,Trial_ID,Ch1,Ch2,Ch3,Ch4,Ch5,Ch6,Ch7,Ch8,Ch9,Ch10,Ch11,Label
3276.88232421875,63477,1,1752.0,1750.0,1646.0,1797.0,1749.0,1747.0,1763.0,1751.0,72.92227172851562,-28.70352554321289,-51.89095687866211,Left
3278.88232421875,63477,1,1757.0,1757.0,1725.0,1758.0,1755.0,1750.0,1759.0,1756.0,72.92227172851562,-28.70352554321289,-51.89095687866211,Left
3280.88232421875,63477,1,1769.0,1765.0,1736.0,1753.0,1756.0,1753.0,1763.0,1757.0,72.92227172851562,-28.70352554321289,-51.89095687866211,Left
3282.88232421875,63477,1,1773.0,1767.0,1736.0,1741.0,1753.0,1755.0,1759.0,1753.0,72.92227172851562,-28.70352554321289,-51.89095687866211,Left
3284.88232421875,63477,1,1773.0,1765.0,1626.0,1721.0,1763.0,1763.0,1762.0,1765.0,72.92227172851562,-28.70352554321289,-51.89095687866211,Left
3277.888671875,63478,1,1764.0,1770.0,1655.0,1518.0,1759.0,1767.0,1757.0,1747.0,72.92227172851562,-28.70352554321289,-51.89095687866211,Left
3279.888671875,63478,1,1764.0,1764.0,1875.0,1379.0,1751.0,1755.0,1758.0,1749.0,72.92227172851562,-28.70352554321289,-51.89095687866211,Left
3281.888671875,63478,1,1749.0,1755.0,1877.0,1499.0,1745.0,1743.0,1759.0,1735.0,72.92227172851562,-28.70352554321289,-51.89095687866211,Left
3283.888671875,63478,1,1749.0,1755.0,2169.0,1643.0,1747.0,1741.0,1758.0,1735.0,72.92227172851562,-28.70352554321289,-51.89095687866211,Left
3285.888671875,63478,1,1749.0,1754.0,2029.0,1845.0,1741.0,1746.0,1764.0,1740.0,72.92227172851562,-28.70352554321289,-51.89095687866211,Left
3277.888671875,63479,1,1741.0,1757.0,2083.0,1975.0,1747.0,1742.0,1764.0,1741.0,72.92227172851562,-28.70352554321289,-51.89095687866211,Left
3279.888671875,63479,1,1763.0,1759.0,2057.0,1975.0,1753.0,1739.0,1763.0,1757.0,72.85499572753906,-28.718435287475586,-51.9013557434082,Left
3281.888671875,63479,1,1769.0,1767.0,2025.0,1864.0,1757.0,1764.0,1763.0,1759.0,72.85499572753906,-28.718435287475586,-51.9013557434082,Left
3283.888671875,63479,1,1770.0,1767.0,1909.0,1786.0,1759.0,1761.0,1762.0,1755.0,72.85499572753906,-28.718435287475586,-51.9013557434082,Left
3285.888671875,63479,1,1763.0,1771.0,1829.0,1705.0,1759.0,1763.0,1759.0,1759.0,72.85499572753906,-28.718435287475586,-51.9013557434082,Left
3277.888671875,63480,1,1766.0,1771.0,1728.0,1669.0,1756.0,1763.0,1751.0,1749.0,72.85499572753906,-28.718435287475586,-51.9013557434082,Left
3279.888671875,63480,1,1767.0,1766.0,1822.0,1589.0,1755.0,1751.0,1758.0,1746.0,72.85499572753906,-28.718435287475586,-51.9013557434082,Left
3281.888671875,63480,1,1749.0,1755.0,1957.0,1645.0,1742.0,1746.0,1764.0,1733.0,72.85499572753906,-28.718435287475586,-51.9013557434082,Left
3283.888671875,63480,1,1743.0,1753.0,2008.0,1691.0,1735.0,1741.0,1757.0,1735.0,72.85499572753906,-28.718435287475586,-51.9013557434082,Left
3285.888671875,63480,1,1739.0,1747.0,1993.0,1739.0,1727.0,1738.0,1759.0,1737.0,72.85499572753906,-28.718435287475586,-51.9013557434082,Left
3278.882080078125,63481,1,1753.0,1755.0,1885.0,1843.0,1753.0,1755.0,1761.0,1753.0,72.85499572753906,-28.718435287475586,-51.9013557434082,Left
3280.882080078125,63481,1,1756.0,1759.0,1993.0,1689.0,1752.0,1751.0,1758.0,1751.0,72.85499572753906,-28.718435287475586,-51.9013557434082,Left
3282.882080078125,63481,1,1767.0,1767.0,1837.0,1787.0,1755.0,1747.0,1762.0,1759.0,72.85499572753906,-28.718435287475586,-51.9013557434082,Left
3284.882080078125,63481,1,1775.0,1765.0,1641.0,1689.0,1759.0,1759.0,1761.0,1758.0,72.85499572753906,-28.718435287475586,-51.9013557434082,Left
3286.882080078125,63481,1,1769.0,1768.0,1691.0,1764.0,1765.0,1764.0,1759.0,1762.0,72.85499572753906,-28.718435287475586,-51.9013557434082,Left
3280.882080078125,63482,1,1770.0,1769.0,1645.0,1655.0,1763.0,1754.0,1758.0,1747.0,72.85499572753906,-28.718435287475586,-51.9013557434082,Left
3282.882080078125,63482,1,1753.0,1764.0,1736.0,1567.0,1752.0,1755.0,1763.0,1745.0,72.85499572753906,-28.718435287475586,-51.9013557434082,Left
3284.882080078125,63482,1,1748.0,1753.0,1811.0,1751.0,1742.0,1738.0,1763.0,1733.0,72.85499572753906,-28.718435287475586,-51.9013557434082,Left
3286.882080078125,63482,1,1741.0,1747.0,2071.0,1689.0,1727.0,1738.0,1759.0,1739.0,72.85499572753906,-28.718435287475586,-51.9013557434082,Left
3288.882080078125,63482,1,1743.0,1751.0,1951.0,1812.0,1728.0,1739.0,1759.0,1738.0,72.85499572753906,-28.718435287475586,-51.9013557434082,Left
3291.88330078125,63483,1,1751.0,1763.0,1833.0,1926.0,1751.0,1749.0,1769.0,1755.0,72.85499572753906,-28.718435287475586,-51.9013557434082,Left
3293.88330078125,63483,1,1765.0,1767.0,1880.0,1947.0,1755.0,1754.0,1763.0,1754.0,72.85499572753906,-28.718435287475586,-51.9013557434082,Left
3295.88330078125,63483,1,1762.0,1771.0,1832.0,1741.0,1757.0,1755.0,1757.0,1758.0,72.85499572753906,-28.718435287475586,-51.9013557434082,Left
3297.88330078125,63483,1,1763.0,1767.0,1669.0,1725.0,1761.0,1754.0,1763.0,1756.0,72.85499572753906,-28.718435287475586,-51.9013557434082,Left
3299.88330078125,63483,1,1771.0,1763.0,1450.0,1899.0,1753.0,1758.0,1757.0,1757.0,72.85499572753906,-28.718435287475586,-51.9013557434082,Left
3298.601318359375,63484,1,1774.0,1763.0,1461.0,1938.0,1749.0,1757.0,1758.0,1734.0,72.85499572753906,-28.718435287475586,-51.9013557434082,Left
3300.601318359375,63484,1,1769.0,1754.0,1640.0,1870.0,1749.0,1752.0,1758.0,1746.0,72.85499572753906,-28.718435287475586,-51.9013557434082,Left
3302.601318359375,63484,1,1747.0,1755.0,1708.0,1875.0,1741.0,1743.0,1757.0,1727.0,72.85499572753906,-28.718435287475586,-51.9013557434082,Left
3304.601318359375,63484,1,1742.0,1750.0,1679.0,1899.0,1739.0,1739.0,1763.0,1737.0,72.85499572753906,-28.718435287475586,-51.9013557434082,Left
3306.601318359375,63484,1,1754.0,1750.0,1992.0,2044.0,1747.0,1740.0,1759.0,1741.0,72.85499572753906,-28.718435287475586,-51.9013557434082,Left
3308.750732421875,63485,1,1758.0,1758.0,1991.0,2079.0,1749.0,1750.0,1753.0,1742.0,72.85499572753906,-28.718435287475586,-51.9013557434082,Left
3310.750732421875,63485,1,1764.0,1755.0,1961.0,1951.0,1753.0,1753.0,1759.0,1753.0,72.85499572753906,-28.718435287475586,-51.9013557434082,Left
3312.750732421875,63485,1,1763.0,1768.0,1852.0,1939.0,1757.0,1753.0,1761.0,1757.0,72.85499572753906,-28.718435287475586,-51.9013557434082,Left
3314.750732421875,63485,1,1768.0,1767.0,1699.0,1699.0,1757.0,1750.0,1759.0,1753.0,72.79280090332031,-28.73004722595215,-51.91115951538086,Left
3316.750732421875,63485,1,1768.0,1769.0,1741.0,1646.0,1767.0,1757.0,1759.0,1765.0,72.79280090332031,-28.73004722595215,-51.91115951538086,Left
3325.751708984375,63486,1,1772.0,1768.0,1591.0,1643.0,1749.0,1758.0,1759.0,1741.0,72.79280090332031,-28.73004722595215,-51.91115951538086,Left
3327.751708984375,63486,1,1735.0,1762.0,1608.0,1701.0,1745.0,1750.0,1763.0,1747.0,72.79280090332031,-28.73004722595215,-51.91115951538086,Left
3329.751708984375,63486,1,1748.0,1755.0,1555.0,1746.0,1740.0,1747.0,1763.0,1735.0,72.79280090332031,-28.73004722595215,-51.91115951538086,Left
3331.751708984375,63486,1,1747.0,1747.0,1624.0,1800.0,1740.0,1738.0,1759.0,1736.0,72.79280090332031,-28.73004722595215,-51.91115951538086,Left
3333.751708984375,63486,1,1747.0,1757.0,1611.0,1772.0,1747.0,1743.0,1759.0,1740.0,72.79280090332031,-28.73004722595215,-51.91115951538086,Left
3328.751220703125,63487,1,1757.0,1765.0,1610.0,1707.0,1755.0,1750.0,1763.0,1749.0,72.79280090332031,-28.73004722595215,-51.91115951538086,Left
3330.751220703125,63487,1,1765.0,1759.0,1678.0,1751.0,1753.0,1752.0,1763.0,1752.0,72.79280090332031,-28.73004722595215,-51.91115951538086,Left
3332.751220703125,63487,1,1771.0,1765.0,1576.0,1739.0,1755.0,1763.0,1759.0,1758.0,72.79280090332031,-28.73004722595215,-51.91115951538086,Left
3334.751220703125,63487,1,1771.0,1757.0,1687.0,1725.0,1747.0,1761.0,1763.0,1755.0,72.79280090332031,-28.73004722595215,-51.91115951538086,Left
3336.751220703125,63487,1,1761.0,1769.0,1687.0,1631.0,1757.0,1765.0,1763.0,1762.0,72.79280090332031,-28.73004722595215,-51.91115951538086,Left
3338.751220703125,63488,1,1767.0,1767.0,1587.0,1529.0,1754.0,1755.0,1753.0,1753.0,72.79280090332031,-28.73004722595215,-51.91115951538086,Left
3340.751220703125,63488,1,1757.0,1765.0,1787.0,1627.0,1751.0,1751.0,1763.0,1747.0,72.79280090332031,-28.73004722595215,-51.91115951538086,Left
3342.751220703125,63488,1,1747.0,1755.0,1944.0,1686.0,1747.0,1741.0,1763.0,1739.0,72.79280090332031,-28.73004722595215,-51.91115951538086,Left
3344.751220703125,63488,1,1749.0,1752.0,1966.0,1707.0,1747.0,1741.0,1758.0,1735.0,72.79280090332031,-28.73004722595215,-51.91115951538086,Left
3346.751220703125,63488,1,1747.0,1753.0,1918.0,1823.0,1741.0,1743.0,1759.0,1739.0,72.79280090332031,-28.73004722595215,-51.91115951538086,Left
3371.195068359375,63489,1,1754.0,1757.0,1869.0,1737.0,1751.0,1749.0,1747.0,1741.0,72.79280090332031,-28.73004722595215,-51.91115951538086,Left
3373.195068359375,63489,1,1759.0,1757.0,1721.0,1786.0,1761.0,1753.0,1769.0,1755.0,72.79280090332031,-28.73004722595215,-51.91115951538086,Left
3375.195068359375,63489,1,1767.0,1766.0,1845.0,1835.0,1756.0,1764.0,1757.0,1757.0,72.79280090332031,-28.73004722595215,-51.91115951538086,Left
3377.195068359375,63489,1,1771.0,1772.0,1799.0,1789.0,1762.0,1752.0,1762.0,1755.0,72.79280090332031,-28.73004722595215,-51.91115951538086,Left
3379.195068359375,63489,1,1772.0,1773.0,1691.0,1655.0,1765.0,1768.0,1759.0,1763.0,72.79280090332031,-28.73004722595215,-51.91115951538086,Left
3371.195068359375,63490,1,1771.0,1771.0,1713.0,1506.0,1771.0,1754.0,1756.0,1743.0,72.79280090332031,-28.73004722595215,-51.91115951538086,Left
3373.195068359375,63490,1,1755.0,1763.0,1895.0,1736.0,1749.0,1748.0,1762.0,1745.0,72.79280090332031,-28.73004722595215,-51.91115951538086,Left
3375.195068359375,63490,1,1749.0,1751.0,1865.0,1750.0,1733.0,1742.0,1759.0,1735.0,72.79280090332031,-28.73004722595215,-51.91115951538086,Left
3377.195068359375,63490,1,1747.0,1749.0,1811.0,1849.0,1741.0,1741.0,1759.0,1739.0,72.79280090332031,-28.73004722595215,-51.91115951538086,Left
3379.195068359375,63490,1,1749.0,1749.0,1912.0,1839.0,1740.0,1741.0,1763.0,1739.0,72.79280090332031,-28.73004722595215,-51.91115951538086,Left
3371.195068359375,63491,1,1749.0,1755.0,1914.0,2019.0,1743.0,1745.0,1763.0,1746.0,72.79280090332031,-28.73004722595215,-51.91115951538086,Left
3373.195068359375,63491,1,1771.0,1763.0,1942.0,1945.0,1748.0,1756.0,1762.0,1761.0,72.79280090332031,-28.73004722595215,-51.91115951538086,Left
3375.195068359375,63491,1,1766.0,1763.0,1897.0,1963.0,1757.0,1757.0,1761.0,1759.0,72.79280090332031,-28.73004722595215,-51.91115951538086,Left
3377.195068359375,63491,1,1765.0,1771.0,1684.0,1911.0,1763.0,1757.0,1763.0,1755.0,72.79280090332031,-28.73004722595215,-51.91115951538086,Left
3379.195068359375,63491,1,1765.0,1772.0,1703.0,1764.0,1765.0,1759.0,1763.0,1765.0,72.79280090332031,-28.73004722595215,-51.91115951538086,Left
3379.2470703125,63492,1,1768.0,1771.0,1559.0,1739.0,1763.0,1754.0,1759.0,1747.0,72.79280090332031,-28.73004722595215,-51.91115951538086,Left
3381.2470703125,63492,1,1766.0,1762.0,1636.0,1662.0,1751.0,1749.0,1762.0,1749.0,72.7919692993164,-28.728626251220703,-51.920589447021484,Left
3383.2470703125,63492,1,1747.0,1742.0,1723.0,1753.0,1717.0,1747.0,1763.0,1727.0,72.7919692993164,-28.728626251220703,-51.920589447021484,Left
3385.2470703125,63492,1,1741.0,1747.0,1823.0,1805.0,1722.0,1745.0,1759.0,1735.0,72.7919692993164,-28.728626251220703,-51.920589447021484,Left
3387.2470703125,63492,1,1748.0,1756.0,1914.0,1837.0,1747.0,1746.0,1757.0,1736.0,72.7919692993164,-28.728626251220703,-51.920589447021484,Left
3388.32275390625,63493,1,1756.0,1763.0,1770.0,1789.0,1755.0,1735.0,1753.0,1741.0,72.7919692993164,-28.728626251220703,-51.920589447021484,Left
3390.32275390625,63493,1,1762.0,1763.0,1752.0,1624.0,1757.0,1749.0,1764.0,1755.0,72.7919692993164,-28.728626251220703,-51.920589447021484,Left
3392.32275390625,63493,1,1769.0,1765.0,1765.0,1717.0,1751.0,1751.0,1758.0,1754.0,72.7919692993164,-28.728626251220703,-51.920589447021484,Left
3394.32275390625,63493,1,1765.0,1759.0,1701.0,1630.0,1747.0,1756.0,1759.0,1752.0,72.7919692993164,-28.728626251220703,-51.920589447021484,Left
3396.32275390625,63493,1,1769.0,1767.0,1669.0,1578.0,1765.0,1761.0,1761.0,1761.0,72.7919692993164,-28.728626251220703,-51.920589447021484,Left
3398.322998046875,63494,1,1768.0,1769.0,1670.0,1461.0,1758.0,1743.0,1754.0,1747.0,72.7919692993164,-28.728626251220703,-51.920589447021484,Left
3400.322998046875,63494,1,1755.0,1766.0,1653.0,1419.0,1755.0,1752.0,1759.0,1747.0,72.7919692993164,-28.728626251220703,-51.920589447021484,Left
3402.322998046875,63494,1,1749.0,1757.0,1814.0,1571.0,1747.0,1746.0,1763.0,1735.0,72.7919692993164,-28.728626251220703,-51.920589447021484,Left
3404.322998046875,63494,1,1743.0,1750.0,1977.0,1715.0,1739.0,1747.0,1759.0,1737.0,72.7919692993164,-28.728626251220703,-51.920589447021484,Left
3406.322998046875,63494,1,1745.0,1751.0,1829.0,1613.0,1741.0,1737.0,1759.0,1743.0,72.7919692993164,-28.728626251220703,-51.920589447021484,Left
3408.379638671875,63495,1,1757.0,1753.0,2013.0,1683.0,1751.0,1750.0,1752.0,1745.0,72.7919692993164,-28.728626251220703,-51.920589447021484,Left
3410.379638671875,63495,1,1755.0,1759.0,1915.0,1702.0,1751.0,1756.0,1763.0,1750.0,72.7919692993164,-28.728626251220703,-51.920589447021484,Left
3412.379638671875,63495,1,1763.0,1763.0,1875.0,1689.0,1758.0,1755.0,1761.0,1759.0,72.7919692993164,-28.728626251220703,-51.920589447021484,Left
3414.379638671875,63495,1,1763.0,1763.0,1767.0,1835.0,1757.0,1769.0,1763.0,1758.0,72.7919692993164,-28.728626251220703,-51.920589447021484,Left
3416.379638671875,63495,1,1766.0,1772.0,1692.0,1873.0,1763.0,1766.0,1762.0,1763.0,72.7919692993164,-28.728626251220703,-51.920589447021484,Left
3417.93359375,63496,1,1768.0,1770.0,1690.0,1813.0,1758.0,1758.0,1761.0,1755.0,72.7919692993164,-28.728626251220703,-51.920589447021484,Left
3419.93359375,63496,1,1754.0,1767.0,1709.0,1775.0,1752.0,1752.0,1758.0,1747.0,72.7919692993164,-28.728626251220703,-51.920589447021484,Left
3421.93359375,63496,1,1747.0,1751.0,1807.0,1670.0,1740.0,1742.0,1763.0,1734.0,72.7919692993164,-28.728626251220703,-51.920589447021484,Left
3423.93359375,63496,1,1724.0,1747.0,1747.0,1891.0,1737.0,1736.0,1759.0,1735.0,72.7919692993164,-28.728626251220703,-51.920589447021484,Left
3425.93359375,63496,1,1743.0,1757.0,1719.0,1863.0,1741.0,1741.0,1762.0,1742.0,72.7919692993164,-28.728626251220703,-51.920589447021484,Left
3432.21484375,63497,1,1749.0,1758.0,1641.0,1827.0,1752.0,1742.0,1754.0,1742.0,72.7919692993164,-28.728626251220703,-51.920589447021484,Left
3434.21484375,63497,1,1757.0,1761.0,1543.0,1625.0,1750.0,1752.0,1759.0,1751.0,72.7919692993164,-28.728626251220703,-51.920589447021484,Left
3436.21484375,63497,1,1759.0,1765.0,1582.0,1608.0,1753.0,1758.0,1762.0,1755.0,72.7919692993164,-28.728626251220703,-51.920589447021484,Left
3438.21484375,63497,1,1775.0,1763.0,1597.0,1555.0,1759.0,1759.0,1758.0,1757.0,72.7919692993164,-28.728626251220703,-51.920589447021484,Left
3440.21484375,63497,1,1765.0,1769.0,1599.0,1657.0,1763.0,1763.0,1759.0,1759.0,72.7919692993164,-28.728626251220703,-51.920589447021484,Left
3436.214111328125,63498,1,1769.0,1767.0,1366.0,1541.0,1763.0,1746.0,1752.0,1741.0,72.7919692993164,-28.728626251220703,-51.920589447021484,Left
3438.214111328125,63498,1,1755.0,1765.0,1578.0,1567.0,1755.0,1751.0,1759.0,1747.0,72.7919692993164,-28.728626251220703,-51.920589447021484,Left
3440.214111328125,63498,1,1747.0,1755.0,1549.0,1644.0,1737.0,1745.0,1763.0,1732.0,72.7919692993164,-28.728626251220703,-51.920589447021484,Left
3442.214111328125,63498,1,1759.0,1747.0,1603.0,1801.0,1735.0,1736.0,1763.0,1739.0,72.79024505615234,-28.715951919555664,-51.93582534790039,Left
3444.214111328125,63498,1,1746.0,1742.0,1523.0,1842.0,1727.0,1737.0,1763.0,1735.0,72.79024505615234,-28.715951919555664,-51.93582534790039,Left
3451.2119140625,63499,1,1759.0,1749.0,1579.0,1879.0,1747.0,1752.0,1761.0,1751.0,72.79024505615234,-28.715951919555664,-51.93582534790039,Left
3453.2119140625,63499,1,1756.0,1763.0,1642.0,1779.0,1756.0,1751.0,1759.0,1753.0,72.79024505615234,-28.715951919555664,-51.93582534790039,Left
3455.2119140625,63499,1,1765.0,1765.0,1703.0,1810.0,1758.0,1753.0,1763.0,1753.0,72.79024505615234,-28.715951919555664,-51.93582534790039,Left
3457.2119140625,63499,1,1767.0,1769.0,1675.0,1738.0,1759.0,1753.0,1762.0,1757.0,72.79024505615234,-28.715951919555664,-51.93582534790039,Left
3459.2119140625,63499,1,1767.0,1771.0,1772.0,1829.0,1767.0,1767.0,1756.0,1767.0,72.79024505615234,-28.715951919555664,-51.93582534790039,Left
3458.21240234375,63500,1,1768.0,1767.0,1767.0,1672.0,1755.0,1753.0,1755.0,1746.0,72.79024505615234,-28.715951919555664,-51.93582534790039,Left
3460.21240234375,63500,1,1762.0,1763.0,1785.0,1593.0,1751.0,1759.0,1763.0,1747.0,72.79024505615234,-28.715951919555664,-51.93582534790039,Left
3462.21240234375,63500,1,1751.0,1753.0,1900.0,1604.0,1745.0,1746.0,1767.0,1735.0,72.79024505615234,-28.715951919555664,-51.93582534790039,Left
3464.21240234375,63500,1,1741.0,1753.0,1847.0,1725.0,1741.0,1743.0,1759.0,1739.0,72.79024505615234,-28.715951919555664,-51.93582534790039,Left
3466.21240234375,63500,1,1751.0,1752.0,2005.0,1869.0,1741.0,1735.0,1763.0,1740.0,72.79024505615234,-28.715951919555664,-51.93582534790039,Left
3538.1611328125,63501,1,1751.0,1751.0,2072.0,1811.0,1750.0,1756.0,1756.0,1748.0,72.79024505615234,-28.715951919555664,-51.93582534790039,Left
3540.1611328125,63501,1,1756.0,1754.0,2152.0,1763.0,1741.0,1763.0,1762.0,1752.0,72.79024505615234,-28.715951919555664,-51.93582534790039,Left
3542.1611328125,63501,1,1768.0,1763.0,1855.0,1769.0,1757.0,1757.0,1763.0,1755.0,72.79024505615234,-28.715951919555664,-51.93582534790039,Left
3544.1611328125,63501,1,1762.0,1765.0,1950.0,1764.0,1755.0,1739.0,1757.0,1753.0,72.79024505615234,-28.715951919555664,-51.93582534790039,Left
3546.1611328125,63501,1,1768.0,1771.0,1597.0,1727.0,1759.0,1765.0,1763.0,1762.0,72.79024505615234,-28.715951919555664,-51.93582534790039,Left
3538.1611328125,63502,1,1765.0,1767.0,1651.0,1644.0,1757.0,1775.0,1763.0,1756.0,72.79024505615234,-28.715951919555664,-51.93582534790039,Left
3540.1611328125,63502,1,1764.0,1764.0,1831.0,1725.0,1752.0,1751.0,1763.0,1741.0,72.79024505615234,-28.715951919555664,-51.93582534790039,Left
3542.1611328125,63502,1,1745.0,1753.0,2143.0,1733.0,1739.0,1741.0,1763.0,1735.0,72.79024505615234,-28.715951919555664,-51.93582534790039,Left
3544.1611328125,63502,1,1742.0,1740.0,2029.0,2042.0,1740.0,1733.0,1759.0,1736.0,72.79024505615234,-28.715951919555664,-51.93582534790039,Left
3546.1611328125,63502,1,1752.0,1747.0,2021.0,2038.0,1737.0,1711.0,1759.0,1741.0,72.79024505615234,-28.715951919555664,-51.93582534790039,Left
3539.14990234375,63503,1,1755.0,1757.0,1942.0,1945.0,1749.0,1727.0,1756.0,1754.0,72.79024505615234,-28.715951919555664,-51.93582534790039,Left
3541.14990234375,63503,1,1763.0,1767.0,1818.0,1789.0,1748.0,1737.0,1759.0,1755.0,72.79024505615234,-28.715951919555664,-51.93582534790039,Left
3543.14990234375,63503,1,1766.0,1787.0,1803.0,1816.0,1768.0,1767.0,1763.0,1755.0,72.79024505615234,-28.715951919555664,-51.93582534790039,Left
3545.14990234375,63503,1,1763.0,1773.0,1595.0,1812.0,1752.0,1811.0,1759.0,1755.0,72.79024505615234,-28.715951919555664,-51.93582534790039,Left
3547.14990234375,63503,1,1766.0,1758.0,1701.0,1623.0,1759.0,1807.0,1763.0,1752.0,72.79024505615234,-28.715951919555664,-51.93582534790039,Left
3539.14990234375,63504,1,1746.0,1722.0,1427.0,1574.0,1705.0,1727.0,1758.0,1733.0,72.79024505615234,-28.715951919555664,-51.93582534790039,Left
3541.14990234375,63504,1,1732.0,1738.0,1471.0,1685.0,1711.0,1743.0,1757.0,1743.0,72.79024505615234,-28.715951919555664,-51.93582534790039,Left
3543.14990234375,63504,1,1753.0,1757.0,1479.0,1725.0,1763.0,1764.0,1764.0,1746.0,72.79024505615234,-28.715951919555664,-51.93582534790039,Left
3545.14990234375,63504,1,1787.0,1803.0,1657.0,1831.0,1817.0,1781.0,1759.0,1757.0,72.79024505615234,-28.715951919555664,-51.93582534790039,Left
3547.14990234375,63504,1,1776.0,1787.0,1800.0,1964.0,1801.0,1781.0,1764.0,1749.0,72.79024505615234,-28.715951919555664,-51.93582534790039,Left
3540.1494140625,63505,1,1758.0,1781.0,1711.0,1880.0,1745.0,1691.0,1757.0,1739.0,72.79024505615234,-28.715951919555664,-51.93582534790039,Left
3542.1494140625,63505,1,1765.0,1763.0,1532.0,1891.0,1765.0,1691.0,1762.0,1747.0,72.83134460449219,-28.719730377197266,-51.92500686645508,Left
3544.1494140625,63505,1,1762.0,1767.0,1748.0,1710.0,1763.0,1725.0,1763.0,1745.0,72.83134460449219,-28.719730377197266,-51.92500686645508,Left
3546.1494140625,63505,1,1755.0,1763.0,1723.0,1741.0,1749.0,1725.0,1759.0,1751.0,72.83134460449219,-28.719730377197266,-51.92500686645508,Left
3548.1494140625,63505,1,1738.0,1741.0,1852.0,1733.0,1705.0,1740.0,1762.0,1767.0,72.83134460449219,-28.719730377197266,-51.92500686645508,Left
3540.1494140625,63506,1,1749.0,1759.0,1879.0,1643.0,1692.0,1827.0,1758.0,1755.0,72.83134460449219,-28.719730377197266,-51.92500686645508,Left
3542.1494140625,63506,1,1762.0,1765.0,1823.0,1608.0,1751.0,1846.0,1762.0,1757.0,72.83134460449219,-28.719730377197266,-51.92500686645508,Left
3544.1494140625,63506,1,1759.0,1758.0,1752.0,1738.0,1788.0,1799.0,1763.0,1735.0,72.83134460449219,-28.719730377197266,-51.92500686645508,Left
3546.1494140625,63506,1,1766.0,1749.0,1817.0,1833.0,1763.0,1706.0,1755.0,1737.0,72.83134460449219,-28.719730377197266,-51.92500686645508,Left
3548.1494140625,63506,1,1709.0,1738.0,1891.0,1901.0,1685.0,1709.0,1761.0,1724.0,72.83134460449219,-28.719730377197266,-51.92500686645508,Left
3540.1494140625,63507,1,1743.0,1723.0,1689.0,1893.0,1741.0,1716.0,1753.0,1727.0,72.83134460449219,-28.719730377197266,-51.92500686645508,Left
3542.1494140625,63507,1,1727.0,1691.0,1496.0,1747.0,1721.0,1707.0,1759.0,1740.0,72.83134460449219,-28.719730377197266,-51.92500686645508,Left
3544.1494140625,63507,1,1771.0,1742.0,1525.0,1788.0,1711.0,1769.0,1759.0,1763.0,72.83134460449219,-28.719730377197266,-51.92500686645508,Left
3546.1494140625,63507,1,1805.0,1849.0,1736.0,1687.0,1811.0,1743.0,1759.0,1755.0,72.83134460449219,-28.719730377197266,-51.92500686645508,Left
3548.1494140625,63507,1,1829.0,1875.0,1619.0,1677.0,1933.0,1751.0,1764.0,1773.0,72.83134460449219,-28.719730377197266,-51.92500686645508,Left
3540.1494140625,63508,1,1782.0,1788.0,1628.0,1613.0,1817.0,1734.0,1763.0,1749.0,72.83134460449219,-28.719730377197266,-51.92500686645508,Left
3542.1494140625,63508,1,1727.0,1769.0,1957.0,1709.0,1753.0,1751.0,1762.0,1750.0,72.83134460449219,-28.719730377197266,-51.92500686645508,Left
3544.1494140625,63508,1,1737.0,1718.0,2035.0,1774.0,1719.0,1717.0,1765.0,1728.0,72.83134460449219,-28.719730377197266,-51.92500686645508,Left
3546.1494140625,63508,1,1763.0,1739.0,2029.0,1928.0,1705.0,1773.0,1762.0,1740.0,72.83134460449219,-28.719730377197266,-51.92500686645508,Left
3548.1494140625,63508,1,1763.0,1753.0,1991.0,1823.0,1722.0,1798.0,1763.0,1751.0,72.83134460449219,-28.719730377197266,-51.92500686645508,Left
3547.150146484375,63509,1,1747.0,1751.0,1909.0,1787.0,1739.0,1739.0,1758.0,1757.0,72.83134460449219,-28.719730377197266,-51.92500686645508,Left
3549.150146484375,63509,1,1748.0,1762.0,1721.0,1629.0,1717.0,1751.0,1764.0,1755.0,72.83134460449219,-28.719730377197266,-51.92500686645508,Left
3551.150146484375,63509,1,1763.0,1757.0,1705.0,1525.0,1775.0,1751.0,1759.0,1759.0,72.83134460449219,-28.719730377197266,-51.92500686645508,Left
3553.150146484375,63509,1,1749.0,1739.0,1723.0,1605.0,1735.0,1785.0,1761.0,1750.0,72.83134460449219,-28.719730377197266,-51.92500686645508,Left
3555.150146484375,63509,1,1723.0,1727.0,1753.0,1654.0,1686.0,1767.0,1763.0,1757.0,72.83134460449219,-28.719730377197266,-51.92500686645508,Left
3557.15087890625,63510,1,1772.0,1800.0,1661.0,1663.0,1772.0,1734.0,1757.0,1757.0,72.83134460449219,-28.719730377197266,-51.92500686645508,Left
3559.15087890625,63510,1,1767.0,1789.0,1780.0,1635.0,1755.0,1695.0,1763.0,1725.0,72.83134460449219,-28.719730377197266,-51.92500686645508,Left
3561.15087890625,63510,1,1763.0,1747.0,1880.0,1703.0,1724.0,1771.0,1761.0,1734.0,72.83134460449219,-28.719730377197266,-51.92500686645508,Left
3563.15087890625,63510,1,1719.0,1695.0,1977.0,1913.0,1671.0,1741.0,1759.0,1733.0,72.83134460449219,-28.719730377197266,-51.92500686645508,Left
3565.15087890625,63510,1,1751.0,1753.0,1817.0,1941.0,1735.0,1735.0,1759.0,1736.0,72.83134460449219,-28.719730377197266,-51.92500686645508,Left
3569.150146484375,63511,1,1823.0,1843.0,1829.0,1748.0,1891.0,1759.0,1759.0,1767.0,72.83134460449219,-28.719730377197266,-51.92500686645508,Left
3571.150146484375,63511,1,1763.0,1765.0,1801.0,1627.0,1727.0,1773.0,1763.0,1741.0,72.83134460449219,-28.719730377197266,-51.92500686645508,Left
3573.150146484375,63511,1,1738.0,1771.0,1767.0,1742.0,1743.0,1820.0,1763.0,1757.0,72.83134460449219,-28.719730377197266,-51.92500686645508,Left
3575.150146484375,63511,1,1775.0,1785.0,1721.0,1653.0,1772.0,1719.0,1763.0,1756.0,72.83134460449219,-28.719730377197266,-51.92500686645508,Left
3577.150146484375,63511,1,1801.0,1774.0,1735.0,1672.0,1783.0,1787.0,1758.0,1763.0,72.7916259765625,-28.643770217895508,-52.12741470336914,Left
3579.150146484375,63512,1,1768.0,1757.0,1684.0,1612.0,1781.0,1811.0,1759.0,1757.0,72.7916259765625,-28.643770217895508,-52.12741470336914,Left
3581.150146484375,63512,1,1772.0,1763.0,1803.0,1487.0,1743.0,1765.0,1765.0,1754.0,72.7916259765625,-28.643770217895508,-52.12741470336914,Left
3583.150146484375,63512,1,1758.0,1758.0,1801.0,1590.0,1767.0,1660.0,1762.0,1747.0,72.7916259765625,-28.643770217895508,-52.12741470336914,Left
3585.150146484375,63512,1,1741.0,1750.0,1598.0,1595.0,1723.0,1614.0,1762.0,1737.0,72.7916259765625,-28.643770217895508,-52.12741470336914,Left
3587.150146484375,63512,1,1709.0,1733.0,1767.0,1703.0,1673.0,1615.0,1759.0,1705.0,72.7916259765625,-28.643770217895508,-52.12741470336914,Left
3605.15087890625,63513,1,1722.0,1742.0,1789.0,1901.0,1699.0,1847.0,1757.0,1717.0,72.7916259765625,-28.643770217895508,-52.12741470336914,Left
3607.15087890625,63513,1,1728.0,1757.0,1967.0,2007.0,1749.0,1863.0,1757.0,1735.0,72.7916259765625,-28.643770217895508,-52.12741470336914,Left
3609.15087890625,63513,1,1754.0,1755.0,1901.0,1972.0,1747.0,1711.0,1759.0,1739.0,72.7916259765625,-28.643770217895508,-52.12741470336914,Left
3611.15087890625,63513,1,1773.0,1765.0,1708.0,1819.0,1766.0,1723.0,1758.0,1762.0,72.7916259765625,-28.643770217895508,-52.12741470336914,Left
3613.15087890625,63513,1,1788.0,1775.0,1661.0,1739.0,1769.0,1737.0,1763.0,1802.0,72.7916259765625,-28.643770217895508,-52.12741470336914,Left
3605.15087890625,63514,1,1803.0,1803.0,1735.0,1579.0,1829.0,1817.0,1762.0,1773.0,72.7916259765625,-28.643770217895508,-52.12741470336914,Left
3607.15087890625,63514,1,1788.0,1779.0,1801.0,1530.0,1787.0,1832.0,1759.0,1761.0,72.7916259765625,-28.643770217895508,-52.12741470336914,Left
3609.15087890625,63514,1,1756.0,1751.0,1839.0,1662.0,1739.0,1764.0,1758.0,1742.0,72.7916259765625,-28.643770217895508,-52.12741470336914,Left
3611.15087890625,63514,1,1723.0,1736.0,1892.0,1709.0,1719.0,1743.0,1763.0,1723.0,72.7916259765625,-28.643770217895508,-52.12741470336914,Left
3613.15087890625,63514,1,1739.0,1747.0,1805.0,1767.0,1727.0,1740.0,1757.0,1741.0,72.7916259765625,-28.643770217895508,-52.12741470336914,Left
3608.149658203125,63515,1,1738.0,1749.0,1739.0,1805.0,1711.0,1753.0,1763.0,1725.0,72.7916259765625,-28.643770217895508,-52.12741470336914,Left
3610.149658203125,63515,1,1733.0,1739.0,1943.0,1893.0,1707.0,1765.0,1759.0,1737.0,72.7916259765625,-28.643770217895508,-52.12741470336914,Left
3612.149658203125,63515,1,1747.0,1751.0,1799.0,1774.0,1709.0,1705.0,1762.0,1749.0,72.7916259765625,-28.643770217895508,-52.12741470336914,Left
3614.149658203125,63515,1,1805.0,1785.0,1727.0,1627.0,1843.0,1749.0,1761.0,1773.0,72.7916259765625,-28.643770217895508,-52.12741470336914,Left
3616.149658203125,63515,1,1791.0,1765.0,1627.0,1715.0,1797.0,1791.0,1763.0,1811.0,72.7916259765625,-28.643770217895508,-52.12741470336914,Left
3617.150390625,63516,1,1757.0,1743.0,1627.0,1637.0,1705.0,1706.0,1763.0,1753.0,72.7916259765625,-28.643770217895508,-52.12741470336914,Left
3619.150390625,63516,1,1751.0,1785.0,1687.0,1773.0,1745.0,1679.0,1756.0,1727.0,72.7916259765625,-28.643770217895508,-52.12741470336914,Left
3621.150390625,63516,1,1769.0,1775.0,1741.0,1952.0,1785.0,1675.0,1759.0,1703.0,72.7916259765625,-28.643770217895508,-52.12741470336914,Left
3623.150390625,63516,1,1735.0,1725.0,1773.0,1917.0,1737.0,1748.0,1762.0,1727.0,72.7916259765625,-28.643770217895508,-52.12741470336914,Left
3625.150390625,63516,1,1727.0,1735.0,1815.0,1957.0,1695.0,1821.0,1763.0,1725.0,72.7916259765625,-28.643770217895508,-52.12741470336914,Left
3627.151123046875,63517,1,1755.0,1797.0,1663.0,1912.0,1811.0,1871.0,1758.0,1747.0,72.7916259765625,-28.643770217895508,-52.12741470336914,Left
3629.151123046875,63517,1,1785.0,1789.0,1651.0,1823.0,1781.0,1767.0,1764.0,1775.0,72.7916259765625,-28.643770217895508,-52.12741470336914,Left
3631.151123046875,63517,1,1759.0,1749.0,1580.0,1775.0,1740.0,1695.0,1762.0,1757.0,72.7916259765625,-28.643770217895508,-52.12741470336914,Left
3633.151123046875,63517,1,1740.0,1723.0,1593.0,1805.0,1717.0,1719.0,1759.0,1743.0,72.7916259765625,-28.643770217895508,-52.12741470336914,Left
3635.151123046875,63517,1,1741.0,1746.0,1531.0,1725.0,1684.0,1747.0,1763.0,1752.0,72.7916259765625,-28.643770217895508,-52.12741470336914,Left
3641.283935546875,63518,1,1766.0,1787.0,1416.0,1565.0,1775.0,1753.0,1762.0,1747.0,72.7916259765625,-28.643770217895508,-52.12741470336914,Left
3643.283935546875,63518,1,1785.0,1803.0,1657.0,1605.0,1816.0,1811.0,1759.0,1736.0,73.62468719482422,-28.92069435119629,-53.03193664550781,Left
3645.283935546875,63518,1,1785.0,1782.0,1881.0,1528.0,1801.0,1773.0,1763.0,1748.0,73.62468719482422,-28.92069435119629,-53.03193664550781,Left
3647.283935546875,63518,1,1711.0,1724.0,1703.0,1895.0,1628.0,1671.0,1763.0,1720.0,73.62468719482422,-28.92069435119629,-53.03193664550781,Left
3649.283935546875,63518,1,1764.0,1767.0,1653.0,2019.0,1771.0,1703.0,1763.0,1745.0,73.62468719482422,-28.92069435119629,-53.03193664550781,Left
3647.56494140625,63519,1,1765.0,1755.0,1555.0,1949.0,1799.0,1779.0,1757.0,1772.0,73.62468719482422,-28.92069435119629,-53.03193664550781,Left
3649.56494140625,63519,1,1809.0,1785.0,1597.0,1835.0,1801.0,1821.0,1764.0,1785.0,73.62468719482422,-28.92069435119629,-53.03193664550781,Left
3651.56494140625,63519,1,1751.0,1749.0,1703.0,1783.0,1711.0,1789.0,1759.0,1755.0,73.62468719482422,-28.92069435119629,-53.03193664550781,Left
3653.56494140625,63519,1,1725.0,1751.0,1617.0,1675.0,1679.0,1748.0,1762.0,1741.0,73.62468719482422,-28.92069435119629,-53.03193664550781,Left
3655.56494140625,63519,1,1722.0,1779.0,1639.0,1741.0,1720.0,1733.0,1761.0,1746.0,73.62468719482422,-28.92069435119629,-53.03193664550781,Left
3657.56787109375,63520,1,1819.0,1833.0,1563.0,1557.0,1882.0,1738.0,1762.0,1747.0,73.62468719482422,-28.92069435119629,-53.03193664550781,Left
3659.56787109375,63520,1,1755.0,1771.0,1657.0,1699.0,1769.0,1749.0,1763.0,1738.0,73.62468719482422,-28.92069435119629,-53.03193664550781,Left
3661.56787109375,63520,1,1753.0,1763.0,1831.0,1837.0,1759.0,1739.0,1763.0,1741.0,73.62468719482422,-28.92069435119629,-53.03193664550781,Left
3663.56787109375,63520,1,1765.0,1755.0,1847.0,2035.0,1707.0,1707.0,1763.0,1737.0,73.62468719482422,-28.92069435119629,-53.03193664550781,Left
3665.56787109375,63520,1,1784.0,1773.0,1911.0,2101.0,1753.0,1700.0,1763.0,1766.0,73.62468719482422,-28.92069435119629,-53.03193664550781,Left
3674.581787109375,63521,1,1752.0,1706.0,1897.0,1963.0,1707.0,1780.0,1761.0,1767.0,73.62468719482422,-28.92069435119629,-53.03193664550781,Left
3676.581787109375,63521,1,1739.0,1757.0,1873.0,1873.0,1711.0,1765.0,1759.0,1752.0,73.62468719482422,-28.92069435119629,-53.03193664550781,Left
3678.581787109375,63521,1,1774.0,1807.0,1829.0,1771.0,1845.0,1787.0,1762.0,1764.0,73.62468719482422,-28.92069435119629,-53.03193664550781,Left
3680.581787109375,63521,1,1755.0,1779.0,1584.0,1845.0,1747.0,1783.0,1765.0,1757.0,73.62468719482422,-28.92069435119629,-53.03193664550781,Left
3682.581787109375,63521,1,1788.0,1787.0,1529.0,1722.0,1822.0,1755.0,1759.0,1759.0,73.62468719482422,-28.92069435119629,-53.03193664550781,Left
3676.56591796875,63522,1,1749.0,1809.0,1765.0,1574.0,1751.0,1785.0,1762.0,1752.0,73.62468719482422,-28.92069435119629,-53.03193664550781,Left
3678.56591796875,63522,1,1742.0,1749.0,1677.0,1549.0,1703.0,1767.0,1758.0,1733.0,73.62468719482422,-28.92069435119629,-53.03193664550781,Left
3680.56591796875,63522,1,1725.0,1735.0,1827.0,1562.0,1723.0,1719.0,1758.0,1721.0,73.62468719482422,-28.92069435119629,-53.03193664550781,Left
3682.56591796875,63522,1,1749.0,1753.0,2063.0,1801.0,1687.0,1781.0,1756.0,1737.0,73.62468719482422,-28.92069435119629,-53.03193664550781,Left
3684.56591796875,63522,1,1779.0,1789.0,1928.0,1891.0,1801.0,1592.0,1762.0,1719.0,73.62468719482422,-28.92069435119629,-53.03193664550781,Left
3687.56591796875,63523,1,1771.0,1785.0,1775.0,1893.0,1801.0,1704.0,1761.0,1763.0,73.62468719482422,-28.92069435119629,-53.03193664550781,Left
3689.56591796875,63523,1,1751.0,1783.0,1810.0,1833.0,1753.0,1749.0,1759.0,1767.0,73.62468719482422,-28.92069435119629,-53.03193664550781,Left
3691.56591796875,63523,1,1763.0,1775.0,1869.0,1847.0,1753.0,1771.0,1761.0,1767.0,73.62468719482422,-28.92069435119629,-53.03193664550781,Left
3693.56591796875,63523,1,1757.0,1769.0,1720.0,1769.0,1750.0,1758.0,1759.0,1756.0,73.62468719482422,-28.92069435119629,-53.03193664550781,Left
3695.56591796875,63523,1,1757.0,1757.0,1512.0,1722.0,1737.0,1737.0,1759.0,1756.0,73.62468719482422,-28.92069435119629,-53.03193664550781,Left
3696.939453125,63524,1,1773.0,1755.0,1343.0,1606.0,1742.0,1773.0,1759.0,1749.0,73.62468719482422,-28.92069435119629,-53.03193664550781,Left
3698.939453125,63524,1,1753.0,1773.0,1643.0,1672.0,1757.0,1781.0,1763.0,1741.0,73.62468719482422,-28.92069435119629,-53.03193664550781,Left
3700.939453125,63524,1,1757.0,1772.0,1789.0,1787.0,1753.0,1800.0,1757.0,1746.0,73.62468719482422,-28.92069435119629,-53.03193664550781,Left
3702.939453125,63524,1,1742.0,1723.0,1863.0,1999.0,1688.0,1799.0,1759.0,1734.0,75.28636169433594,-29.7465763092041,-53.861934661865234,Left
3704.939453125,63524,1,1751.0,1739.0,1941.0,2025.0,1724.0,1741.0,1761.0,1753.0,75.28636169433594,-29.7465763092041,-53.861934661865234,Left
3724.93115234375,63525,1,1785.0,1799.0,1810.0,2063.0,1845.0,1753.0,1757.0,1758.0,75.28636169433594,-29.7465763092041,-53.861934661865234,Left
3726.93115234375,63525,1,1791.0,1789.0,1757.0,2008.0,1780.0,1734.0,1763.0,1743.0,75.28636169433594,-29.7465763092041,-53.861934661865234,Left
3728.93115234375,63525,1,1758.0,1769.0,1803.0,2056.0,1759.0,1770.0,1761.0,1751.0,75.28636169433594,-29.7465763092041,-53.861934661865234,Left
3730.93115234375,63525,1,1781.0,1765.0,1763.0,1762.0,1757.0,1776.0,1759.0,1746.0,75.28636169433594,-29.7465763092041,-53.861934661865234,Left
3732.93115234375,63525,1,1755.0,1758.0,1673.0,1672.0,1743.0,1711.0,1759.0,1751.0,75.28636169433594,-29.7465763092041,-53.861934661865234,Left
3724.93115234375,63526,1,1764.0,1757.0,1607.0,1527.0,1747.0,1709.0,1762.0,1737.0,75.28636169433594,-29.7465763092041,-53.861934661865234,Left
3726.93115234375,63526,1,1765.0,1752.0,1741.0,1512.0,1747.0,1727.0,1763.0,1749.0,75.28636169433594,-29.7465763092041,-53.861934661865234,Left
3728.93115234375,63526,1,1757.0,1749.0,1827.0,1711.0,1745.0,1748.0,1763.0,1735.0,75.28636169433594,-29.7465763092041,-53.861934661865234,Left
3730.93115234375,63526,1,1748.0,1746.0,1875.0,1891.0,1745.0,1751.0,1763.0,1742.0,75.28636169433594,-29.7465763092041,-53.861934661865234,Left
3732.93115234375,63526,1,1757.0,1749.0,1935.0,1891.0,1749.0,1763.0,1759.0,1755.0,75.28636169433594,-29.7465763092041,-53.861934661865234,Left
3726.92529296875,63527,1,1757.0,1748.0,2005.0,1866.0,1745.0,1786.0,1763.0,1759.0,75.28636169433594,-29.7465763092041,-53.861934661865234,Left
3728.92529296875,63527,1,1749.0,1721.0,1839.0,1831.0,1716.0,1746.0,1763.0,1739.0,75.28636169433594,-29.7465763092041,-53.861934661865234,Left
3730.92529296875,63527,1,1733.0,1720.0,1997.0,1828.0,1695.0,1735.0,1763.0,1747.0,75.28636169433594,-29.7465763092041,-53.861934661865234,Left
3732.92529296875,63527,1,1739.0,1787.0,1815.0,1691.0,1755.0,1756.0,1763.0,1751.0,75.28636169433594,-29.7465763092041,-53.861934661865234,Left
3734.92529296875,63527,1,1831.0,1820.0,1802.0,1595.0,1839.0,1755.0,1761.0,1763.0,75.28636169433594,-29.7465763092041,-53.861934661865234,Left
3736.925048828125,63528,1,1765.0,1741.0,1615.0,1357.0,1745.0,1767.0,1761.0,1749.0,75.28636169433594,-29.7465763092041,-53.861934661865234,Left
3738.925048828125,63528,1,1751.0,1743.0,1678.0,1447.0,1739.0,1739.0,1763.0,1745.0,75.28636169433594,-29.7465763092041,-53.861934661865234,Left
3740.925048828125,63528,1,1753.0,1740.0,1576.0,1589.0,1742.0,1765.0,1759.0,1741.0,75.28636169433594,-29.7465763092041,-53.861934661865234,Left
3742.925048828125,63528,1,1739.0,1737.0,1769.0,1727.0,1715.0,1755.0,1762.0,1749.0,75.28636169433594,-29.7465763092041,-53.861934661865234,Left
3744.925048828125,63528,1,1755.0,1756.0,1733.0,1807.0,1733.0,1771.0,1762.0,1748.0,75.28636169433594,-29.7465763092041,-53.861934661865234,Left
3748.966552734375,63529,1,1777.0,1781.0,1803.0,1816.0,1787.0,1802.0,1754.0,1755.0,75.28636169433594,-29.7465763092041,-53.861934661865234,Left
3750.966552734375,63529,1,1756.0,1753.0,1817.0,1816.0,1746.0,1652.0,1759.0,1737.0,75.28636169433594,-29.7465763092041,-53.861934661865234,Left
3752.966552734375,63529,1,1747.0,1749.0,1881.0,1801.0,1740.0,1741.0,1757.0,1741.0,75.28636169433594,-29.7465763092041,-53.861934661865234,Left
3754.966552734375,63529,1,1751.0,1752.0,1789.0,1723.0,1741.0,1721.0,1763.0,1750.0,75.28636169433594,-29.7465763092041,-53.861934661865234,Left
3756.966552734375,63529,1,1767.0,1765.0,1711.0,1673.0,1753.0,1763.0,1763.0,1757.0,75.28636169433594,-29.7465763092041,-53.861934661865234,Left
3757.925048828125,63530,1,1748.0,1747.0,1631.0,1628.0,1749.0,1675.0,1749.0,1736.0,75.28636169433594,-29.7465763092041,-53.861934661865234,Left
3759.925048828125,63530,1,1753.0,1750.0,1764.0,1719.0,1749.0,1779.0,1763.0,1749.0,75.28636169433594,-29.7465763092041,-53.861934661865234,Left
3761.925048828125,63530,1,1753.0,1753.0,1965.0,1900.0,1747.0,1771.0,1759.0,1746.0,75.28636169433594,-29.7465763092041,-53.861934661865234,Left
3763.925048828125,63530,1,1757.0,1757.0,1945.0,2141.0,1751.0,1780.0,1763.0,1755.0,75.28636169433594,-29.7465763092041,-53.861934661865234,Left
3765.925048828125,63530,1,1765.0,1755.0,1933.0,2211.0,1749.0,1785.0,1759.0,1749.0,75.28636169433594,-29.7465763092041,-53.861934661865234,Left
3772.925048828125,63531,1,1748.0,1738.0,1909.0,2071.0,1723.0,1733.0,1764.0,1750.0,75.28636169433594,-29.7465763092041,-53.861934661865234,Left
3774.925048828125,63531,1,1747.0,1771.0,1542.0,1823.0,1736.0,1738.0,1758.0,1751.0,74.7783203125,-32.018978118896484,-53.44696807861328,Left
3776.925048828125,63531,1,1775.0,1774.0,1607.0,1737.0,1789.0,1737.0,1764.0,1756.0,74.7783203125,-32.018978118896484,-53.44696807861328,Left
3778.925048828125,63531,1,1763.0,1755.0,1699.0,1645.0,1756.0,1757.0,1758.0,1755.0,74.7783203125,-32.018978118896484,-53.44696807861328,Left
3780.925048828125,63531,1,1751.0,1754.0,1765.0,1479.0,1747.0,1771.0,1763.0,1751.0,74.7783203125,-32.018978118896484,-53.44696807861328,Left
3777.925048828125,63532,1,1757.0,1771.0,1669.0,1243.0,1789.0,1769.0,1758.0,1750.0,74.7783203125,-32.018978118896484,-53.44696807861328,Left
3779.925048828125,63532,1,1757.0,1763.0,1655.0,1434.0,1741.0,1749.0,1762.0,1747.0,74.7783203125,-32.018978118896484,-53.44696807861328,Left
3781.925048828125,63532,1,1755.0,1759.0,1853.0,1661.0,1751.0,1751.0,1763.0,1749.0,74.7783203125,-32.018978118896484,-53.44696807861328,Left
3783.925048828125,63532,1,1739.0,1751.0,1873.0,1867.0,1735.0,1751.0,1762.0,1741.0,74.7783203125,-32.018978118896484,-53.44696807861328,Left
3785.925048828125,63532,1,1749.0,1753.0,1737.0,1955.0,1749.0,1751.0,1759.0,1752.0,74.7783203125,-32.018978118896484,-53.44696807861328,Left
3786.9248046875,63533,1,1772.0,1749.0,1689.0,1981.0,1753.0,1749.0,1759.0,1734.0,74.7783203125,-32.018978118896484,-53.44696807861328,Left
3788.9248046875,63533,1,1765.0,1724.0,1758.0,1911.0,1724.0,1749.0,1757.0,1741.0,74.7783203125,-32.018978118896484,-53.44696807861328,Left
3790.9248046875,63533,1,1741.0,1715.0,1651.0,1752.0,1719.0,1752.0,1764.0,1749.0,74.7783203125,-32.018978118896484,-53.44696807861328,Left
3792.9248046875,63533,1,1765.0,1775.0,1720.0,1643.0,1756.0,1756.0,1757.0,1755.0,74.7783203125,-32.018978118896484,-53.44696807861328,Left
3794.9248046875,63533,1,1803.0,1813.0,1653.0,1585.0,1814.0,1753.0,1764.0,1763.0,74.7783203125,-32.018978118896484,-53.44696807861328,Left
3797.9267578125,63534,1,1740.0,1776.0,1619.0,1547.0,1709.0,1737.0,1762.0,1740.0,74.7783203125,-32.018978118896484,-53.44696807861328,Left
3799.9267578125,63534,1,1741.0,1765.0,1647.0,1550.0,1735.0,1749.0,1757.0,1741.0,74.7783203125,-32.018978118896484,-53.44696807861328,Left
3801.9267578125,63534,1,1750.0,1746.0,1787.0,1727.0,1734.0,1759.0,1755.0,1749.0,74.7783203125,-32.018978118896484,-53.44696807861328,Left
3803.9267578125,63534,1,1753.0,1747.0,1767.0,1997.0,1735.0,1755.0,1763.0,1745.0,74.7783203125,-32.018978118896484,-53.44696807861328,Left
3805.9267578125,63534,1,1746.0,1752.0,1997.0,2145.0,1746.0,1749.0,1763.0,1747.0,74.7783203125,-32.018978118896484,-53.44696807861328,Left
3844.94677734375,63535,1,1763.0,1759.0,1701.0,2074.0,1756.0,1755.0,1759.0,1753.0,74.7783203125,-32.018978118896484,-53.44696807861328,Left
3846.94677734375,63535,1,1754.0,1753.0,1765.0,2009.0,1750.0,1740.0,1763.0,1749.0,74.7783203125,-32.018978118896484,-53.44696807861328,Left
3848.94677734375,63535,1,1750.0,1752.0,1727.0,1799.0,1737.0,1756.0,1763.0,1753.0,74.7783203125,-32.018978118896484,-53.44696807861328,Left
3850.94677734375,63535,1,1767.0,1764.0,1556.0,1695.0,1757.0,1747.0,1757.0,1751.0,74.7783203125,-32.018978118896484,-53.44696807861328,Left
3852.94677734375,63535,1,1759.0,1763.0,1591.0,1511.0,1755.0,1751.0,1761.0,1756.0,74.7783203125,-32.018978118896484,-53.44696807861328,Left
3844.94677734375,63536,1,1753.0,1758.0,1433.0,1401.0,1747.0,1750.0,1759.0,1742.0,74.7783203125,-32.018978118896484,-53.44696807861328,Left
3846.94677734375,63536,1,1749.0,1755.0,1557.0,1627.0,1741.0,1756.0,1763.0,1747.0,74.7783203125,-32.018978118896484,-53.44696807861328,Left
3848.94677734375,63536,1,1753.0,1753.0,1623.0,1785.0,1739.0,1739.0,1759.0,1735.0,74.7783203125,-32.018978118896484,-53.44696807861328,Left
3850.94677734375,63536,1,1755.0,1757.0,1788.0,2013.0,1749.0,1743.0,1752.0,1749.0,74.7783203125,-32.018978118896484,-53.44696807861328,Left
3852.94677734375,63536,1,1761.0,1758.0,1915.0,2067.0,1741.0,1755.0,1763.0,1747.0,74.7783203125,-32.018978118896484,-53.44696807861328,Left
3844.94677734375,63537,1,1757.0,1763.0,1783.0,2131.0,1751.0,1759.0,1763.0,1751.0,74.7783203125,-32.018978118896484,-53.44696807861328,Left
3846.94677734375,63537,1,1757.0,1759.0,1823.0,1999.0,1758.0,1751.0,1762.0,1756.0,74.7783203125,-32.018978118896484,-53.44696807861328,Left
3848.94677734375,63537,1,1771.0,1753.0,1784.0,1815.0,1745.0,1747.0,1757.0,1755.0,74.7783203125,-32.018978118896484,-53.44696807861328,Left
3850.94677734375,63537,1,1757.0,1763.0,1847.0,1580.0,1752.0,1749.0,1758.0,1747.0,75.90834045410156,-34.750736236572266,-52.06346130371094,Left
3852.94677734375,63537,1,1759.0,1763.0,1823.0,1293.0,1748.0,1758.0,1761.0,1750.0,75.90834045410156,-34.750736236572266,-52.06346130371094,Left
3844.94677734375,63538,1,1754.0,1771.0,1733.0,1211.0,1752.0,1757.0,1765.0,1746.0,75.90834045410156,-34.750736236572266,-52.06346130371094,Left
3846.94677734375,63538,1,1757.0,1755.0,1834.0,1431.0,1749.0,1745.0,1763.0,1747.0,75.90834045410156,-34.750736236572266,-52.06346130371094,Left
3848.94677734375,63538,1,1752.0,1751.0,1845.0,1788.0,1743.0,1747.0,1763.0,1739.0,75.90834045410156,-34.750736236572266,-52.06346130371094,Left
3850.94677734375,63538,1,1759.0,1753.0,1947.0,2267.0,1755.0,1759.0,1763.0,1753.0,75.90834045410156,-34.750736236572266,-52.06346130371094,Left
3852.94677734375,63538,1,1754.0,1756.0,1971.0,2224.0,1751.0,1757.0,1771.0,1753.0,75.90834045410156,-34.750736236572266,-52.06346130371094,Left
3853.926025390625,63539,1,1751.0,1752.0,2035.0,2233.0,1763.0,1752.0,1758.0,1739.0,75.90834045410156,-34.750736236572266,-52.06346130371094,Left
3855.926025390625,63539,1,1753.0,1763.0,2119.0,2095.0,1752.0,1738.0,1762.0,1751.0,75.90834045410156,-34.750736236572266,-52.06346130371094,Left
3857.926025390625,63539,1,1765.0,1770.0,2067.0,2024.0,1749.0,1748.0,1758.0,1748.0,75.90834045410156,-34.750736236572266,-52.06346130371094,Left
3859.926025390625,63539,1,1755.0,1767.0,2029.0,1705.0,1740.0,1756.0,1759.0,1750.0,75.90834045410156,-34.750736236572266,-52.06346130371094,Left
3861.926025390625,63539,1,1755.0,1758.0,1677.0,1516.0,1747.0,1765.0,1759.0,1757.0,75.90834045410156,-34.750736236572266,-52.06346130371094,Left
3856.92578125,63540,1,1750.0,1756.0,1700.0,1293.0,1737.0,1754.0,1757.0,1745.0,75.90834045410156,-34.750736236572266,-52.06346130371094,Left
3858.92578125,63540,1,1755.0,1755.0,1705.0,1471.0,1753.0,1751.0,1757.0,1749.0,75.90834045410156,-34.750736236572266,-52.06346130371094,Left
3860.92578125,63540,1,1765.0,1755.0,1768.0,1839.0,1757.0,1758.0,1758.0,1753.0,75.90834045410156,-34.750736236572266,-52.06346130371094,Left
3862.92578125,63540,1,1766.0,1757.0,1771.0,2119.0,1757.0,1743.0,1757.0,1748.0,75.90834045410156,-34.750736236572266,-52.06346130371094,Left
3864.92578125,63540,1,1757.0,1759.0,1755.0,2171.0,1750.0,1747.0,1758.0,1746.0,75.90834045410156,-34.750736236572266,-52.06346130371094,Left
3868.928466796875,63541,1,1752.0,1739.0,1764.0,2129.0,1739.0,1747.0,1756.0,1741.0,75.90834045410156,-34.750736236572266,-52.06346130371094,Left
3870.928466796875,63541,1,1757.0,1752.0,1801.0,2020.0,1747.0,1749.0,1763.0,1752.0,75.90834045410156,-34.750736236572266,-52.06346130371094,Left
3872.928466796875,63541,1,1767.0,1771.0,1564.0,1960.0,1757.0,1747.0,1761.0,1749.0,75.90834045410156,-34.750736236572266,-52.06346130371094,Left
3874.928466796875,63541,1,1763.0,1783.0,1675.0,1618.0,1752.0,1752.0,1763.0,1753.0,75.90834045410156,-34.750736236572266,-52.06346130371094,Left
3876.928466796875,63541,1,1757.0,1759.0,1755.0,1581.0,1749.0,1753.0,1762.0,1752.0,75.90834045410156,-34.750736236572266,-52.06346130371094,Left
3876.925048828125,63542,1,1767.0,1751.0,1783.0,1454.0,1757.0,1751.0,1755.0,1737.0,75.90834045410156,-34.750736236572266,-52.06346130371094,Left
3878.925048828125,63542,1,1757.0,1753.0,1829.0,1573.0,1753.0,1755.0,1763.0,1747.0,75.90834045410156,-34.750736236572266,-52.06346130371094,Left
3880.925048828125,63542,1,1755.0,1753.0,1726.0,1933.0,1741.0,1757.0,1759.0,1739.0,75.90834045410156,-34.750736236572266,-52.06346130371094,Left
3882.925048828125,63542,1,1751.0,1759.0,1870.0,2155.0,1748.0,1725.0,1763.0,1737.0,75.90834045410156,-34.750736236572266,-52.06346130371094,Left
3884.925048828125,63542,1,1754.0,1751.0,1874.0,2264.0,1752.0,1743.0,1763.0,1749.0,75.90834045410156,-34.750736236572266,-52.06346130371094,Left
3889.92529296875,63543,1,1764.0,1748.0,1882.0,2013.0,1755.0,1765.0,1763.0,1755.0,75.90834045410156,-34.750736236572266,-52.06346130371094,Left
3891.92529296875,63543,1,1771.0,1749.0,1704.0,1967.0,1756.0,1775.0,1761.0,1756.0,75.90834045410156,-34.750736236572266,-52.06346130371094,Left
3893.92529296875,63543,1,1763.0,1752.0,1493.0,1901.0,1756.0,1775.0,1759.0,1753.0,75.90834045410156,-34.750736236572266,-52.06346130371094,Left
3895.92529296875,63543,1,1757.0,1727.0,1576.0,1651.0,1747.0,1717.0,1763.0,1745.0,75.90834045410156,-34.750736236572266,-52.06346130371094,Left
3897.92529296875,63543,1,1755.0,1727.0,1465.0,1397.0,1749.0,1722.0,1763.0,1751.0,75.90834045410156,-34.750736236572266,-52.06346130371094,Left
3897.9248046875,63544,1,1759.0,1721.0,1722.0,1271.0,1747.0,1708.0,1756.0,1736.0,75.90834045410156,-34.750736236572266,-52.06346130371094,Left
3899.9248046875,63544,1,1756.0,1715.0,1747.0,1462.0,1737.0,1723.0,1758.0,1727.0,75.90834045410156,-34.750736236572266,-52.06346130371094,Left
3901.9248046875,63544,1,1749.0,1700.0,1805.0,1799.0,1735.0,1763.0,1759.0,1725.0,79.22986602783203,-37.06489562988281,-50.03715515136719,Left
3903.9248046875,63544,1,1753.0,1707.0,1907.0,2101.0,1741.0,1769.0,1761.0,1735.0,79.22986602783203,-37.06489562988281,-50.03715515136719,Left
3905.9248046875,63544,1,1765.0,1719.0,1763.0,2157.0,1754.0,1767.0,1763.0,1748.0,79.22986602783203,-37.06489562988281,-50.03715515136719,Left
3908.925048828125,63545,1,1767.0,1717.0,1768.0,1971.0,1747.0,1755.0,1762.0,1749.0,79.22986602783203,-37.06489562988281,-50.03715515136719,Left
3910.925048828125,63545,1,1757.0,1727.0,1895.0,1885.0,1747.0,1749.0,1759.0,1741.0,79.22986602783203,-37.06489562988281,-50.03715515136719,Left
3912.925048828125,63545,1,1769.0,1743.0,1773.0,1635.0,1776.0,1800.0,1764.0,1757.0,79.22986602783203,-37.06489562988281,-50.03715515136719,Left
3914.925048828125,63545,1,1755.0,1727.0,1623.0,1364.0,1743.0,1811.0,1763.0,1750.0,79.22986602783203,-37.06489562988281,-50.03715515136719,Left
3916.925048828125,63545,1,1749.0,1717.0,1687.0,1003.0,1720.0,1779.0,1758.0,1748.0,79.22986602783203,-37.06489562988281,-50.03715515136719,Left
3920.927490234375,63546,1,1754.0,1753.0,1553.0,927.0,1771.0,1719.0,1747.0,1761.0,79.22986602783203,-37.06489562988281,-50.03715515136719,Left
3922.927490234375,63546,1,1781.0,1747.0,1753.0,1211.0,1763.0,1643.0,1757.0,1736.0,79.22986602783203,-37.06489562988281,-50.03715515136719,Left
3924.927490234375,63546,1,1747.0,1707.0,1724.0,1484.0,1733.0,1647.0,1759.0,1738.0,79.22986602783203,-37.06489562988281,-50.03715515136719,Left
3926.927490234375,63546,1,1768.0,1715.0,1657.0,1920.0,1747.0,1757.0,1763.0,1755.0,79.22986602783203,-37.06489562988281,-50.03715515136719,Left
3928.927490234375,63546,1,1756.0,1727.0,1589.0,2076.0,1743.0,1767.0,1763.0,1749.0,79.22986602783203,-37.06489562988281,-50.03715515136719,Left
3927.925048828125,63547,1,1755.0,1717.0,1695.0,1893.0,1742.0,1773.0,1745.0,1747.0,79.22986602783203,-37.06489562988281,-50.03715515136719,Left
3929.925048828125,63547,1,1749.0,1712.0,1823.0,1695.0,1717.0,1747.0,1759.0,1741.0,79.22986602783203,-37.06489562988281,-50.03715515136719,Left
3931.925048828125,63547,1,1755.0,1764.0,1553.0,1615.0,1778.0,1772.0,1762.0,1755.0,79.22986602783203,-37.06489562988281,-50.03715515136719,Left
3933.925048828125,63547,1,1780.0,1799.0,1421.0,1492.0,1786.0,1763.0,1763.0,1751.0,79.22986602783203,-37.06489562988281,-50.03715515136719,Left
3935.925048828125,63547,1,1753.0,1770.0,1523.0,1366.0,1750.0,1758.0,1757.0,1752.0,79.22986602783203,-37.06489562988281,-50.03715515136719,Left
3992.92919921875,63548,1,1758.0,1784.0,1487.0,1299.0,1755.0,1757.0,1763.0,1751.0,79.22986602783203,-37.06489562988281,-50.03715515136719,Left
3994.92919921875,63548,1,1769.0,1771.0,1594.0,1455.0,1750.0,1764.0,1753.0,1754.0,79.22986602783203,-37.06489562988281,-50.03715515136719,Left
3996.92919921875,63548,1,1763.0,1771.0,1834.0,1926.0,1748.0,1750.0,1763.0,1743.0,79.22986602783203,-37.06489562988281,-50.03715515136719,Left
3998.92919921875,63548,1,1763.0,1771.0,1939.0,2137.0,1752.0,1757.0,1763.0,1751.0,79.22986602783203,-37.06489562988281,-50.03715515136719,Left
4000.92919921875,63548,1,1752.0,1769.0,2023.0,2251.0,1747.0,1749.0,1758.0,1745.0,79.22986602783203,-37.06489562988281,-50.03715515136719,Left
3993.927734375,63549,1,1751.0,1765.0,1907.0,2043.0,1747.0,1742.0,1763.0,1741.0,79.22986602783203,-37.06489562988281,-50.03715515136719,Left
3995.927734375,63549,1,1753.0,1771.0,1774.0,1913.0,1753.0,1749.0,1763.0,1751.0,79.22986602783203,-37.06489562988281,-50.03715515136719,Left
3997.927734375,63549,1,1763.0,1787.0,1950.0,1751.0,1765.0,1763.0,1763.0,1752.0,79.22986602783203,-37.06489562988281,-50.03715515136719,Left
3999.927734375,63549,1,1763.0,1781.0,1689.0,1657.0,1755.0,1741.0,1761.0,1751.0,79.22986602783203,-37.06489562988281,-50.03715515136719,Left
4001.927734375,63549,1,1763.0,1788.0,1479.0,1499.0,1762.0,1755.0,1763.0,1764.0,79.22986602783203,-37.06489562988281,-50.03715515136719,Left
3993.927734375,63550,1,1758.0,1773.0,1609.0,1387.0,1751.0,1755.0,1759.0,1747.0,79.22986602783203,-37.06489562988281,-50.03715515136719,Left
3995.927734375,63550,1,1767.0,1773.0,1589.0,1469.0,1757.0,1754.0,1763.0,1753.0,79.22986602783203,-37.06489562988281,-50.03715515136719,Left
3997.927734375,63550,1,1750.0,1775.0,1657.0,1827.0,1751.0,1749.0,1763.0,1751.0,79.22986602783203,-37.06489562988281,-50.03715515136719,Left
3999.927734375,63550,1,1755.0,1775.0,1717.0,1979.0,1753.0,1748.0,1763.0,1749.0,81.32933044433594,-38.64128112792969,-47.52611541748047,Left
4001.927734375,63550,1,1751.0,1768.0,1789.0,2149.0,1751.0,1755.0,1757.0,1754.0,81.32933044433594,-38.64128112792969,-47.52611541748047,Left
3993.927734375,63551,1,1753.0,1763.0,2008.0,1944.0,1748.0,1735.0,1750.0,1749.0,81.32933044433594,-38.64128112792969,-47.52611541748047,Left
3995.927734375,63551,1,1752.0,1781.0,1939.0,1790.0,1751.0,1743.0,1763.0,1753.0,81.32933044433594,-38.64128112792969,-47.52611541748047,Left
3997.927734375,63551,1,1762.0,1781.0,1931.0,1700.0,1753.0,1751.0,1763.0,1756.0,81.32933044433594,-38.64128112792969,-47.52611541748047,Left
3999.927734375,63551,1,1768.0,1781.0,1736.0,1563.0,1751.0,1753.0,1758.0,1751.0,81.32933044433594,-38.64128112792969,-47.52611541748047,Left
4001.927734375,63551,1,1767.0,1775.0,1757.0,1511.0,1756.0,1747.0,1757.0,1749.0,81.32933044433594,-38.64128112792969,-47.52611541748047,Left
3993.927734375,63552,1,1759.0,1773.0,1589.0,1337.0,1753.0,1757.0,1762.0,1741.0,81.32933044433594,-38.64128112792969,-47.52611541748047,Left
3995.927734375,63552,1,1755.0,1771.0,1644.0,1380.0,1749.0,1756.0,1757.0,1749.0,81.32933044433594,-38.64128112792969,-47.52611541748047,Left
3997.927734375,63552,1,1763.0,1771.0,1645.0,1571.0,1749.0,1749.0,1762.0,1747.0,81.32933044433594,-38.64128112792969,-47.52611541748047,Left
3999.927734375,63552,1,1757.0,1765.0,1924.0,1892.0,1740.0,1741.0,1759.0,1735.0,81.32933044433594,-38.64128112792969,-47.52611541748047,Left
4001.927734375,63552,1,1749.0,1771.0,1747.0,2195.0,1748.0,1747.0,1763.0,1751.0,81.32933044433594,-38.64128112792969,-47.52611541748047,Left
3993.927734375,63553,1,1749.0,1766.0,1839.0,2029.0,1747.0,1747.0,1759.0,1737.0,81.32933044433594,-38.64128112792969,-47.52611541748047,Left
3995.927734375,63553,1,1759.0,1766.0,2028.0,1927.0,1753.0,1765.0,1763.0,1753.0,81.32933044433594,-38.64128112792969,-47.52611541748047,Left
3997.927734375,63553,1,1765.0,1767.0,2012.0,1761.0,1758.0,1749.0,1763.0,1759.0,81.32933044433594,-38.64128112792969,-47.52611541748047,Left
3999.927734375,63553,1,1779.0,1771.0,1830.0,1548.0,1763.0,1756.0,1759.0,1764.0,81.32933044433594,-38.64128112792969,-47.52611541748047,Left
4001.927734375,63553,1,1765.0,1769.0,1705.0,1349.0,1752.0,1757.0,1759.0,1751.0,81.32933044433594,-38.64128112792969,-47.52611541748047,Left
3996.925048828125,63554,1,1752.0,1765.0,1767.0,1311.0,1752.0,1755.0,1756.0,1743.0,81.32933044433594,-38.64128112792969,-47.52611541748047,Left
3998.925048828125,63554,1,1763.0,1762.0,1716.0,1589.0,1756.0,1753.0,1763.0,1752.0,81.32933044433594,-38.64128112792969,-47.52611541748047,Left
4000.925048828125,63554,1,1752.0,1759.0,1753.0,1930.0,1743.0,1751.0,1757.0,1739.0,81.32933044433594,-38.64128112792969,-47.52611541748047,Left
4002.925048828125,63554,1,1751.0,1759.0,1591.0,2273.0,1753.0,1741.0,1763.0,1743.0,81.32933044433594,-38.64128112792969,-47.52611541748047,Left
4004.925048828125,63554,1,1753.0,1762.0,1688.0,2452.0,1749.0,1746.0,1757.0,1751.0,81.32933044433594,-38.64128112792969,-47.52611541748047,Left
4011.9287109375,63555,1,1757.0,1751.0,1695.0,2072.0,1751.0,1746.0,1763.0,1749.0,81.32933044433594,-38.64128112792969,-47.52611541748047,Left
4013.9287109375,63555,1,1758.0,1762.0,1528.0,1883.0,1751.0,1758.0,1763.0,1752.0,81.32933044433594,-38.64128112792969,-47.52611541748047,Left
4015.9287109375,63555,1,1759.0,1771.0,1717.0,1672.0,1754.0,1753.0,1759.0,1748.0,81.32933044433594,-38.64128112792969,-47.52611541748047,Left
4017.9287109375,63555,1,1755.0,1759.0,1654.0,1561.0,1747.0,1755.0,1763.0,1747.0,81.32933044433594,-38.64128112792969,-47.52611541748047,Left
4019.9287109375,63555,1,1763.0,1767.0,1657.0,1370.0,1752.0,1755.0,1757.0,1751.0,81.32933044433594,-38.64128112792969,-47.52611541748047,Left
4016.925048828125,63556,1,1773.0,1758.0,1769.0,1181.0,1752.0,1752.0,1761.0,1747.0,81.32933044433594,-38.64128112792969,-47.52611541748047,Left
4018.925048828125,63556,1,1753.0,1751.0,1780.0,1289.0,1743.0,1750.0,1759.0,1737.0,81.32933044433594,-38.64128112792969,-47.52611541748047,Left
4020.925048828125,63556,1,1763.0,1749.0,1997.0,1599.0,1742.0,1753.0,1762.0,1747.0,81.32933044433594,-38.64128112792969,-47.52611541748047,Left
4022.925048828125,63556,1,1765.0,1750.0,2063.0,1783.0,1758.0,1739.0,1759.0,1758.0,81.32933044433594,-38.64128112792969,-47.52611541748047,Left
4024.925048828125,63556,1,1757.0,1759.0,2019.0,1990.0,1746.0,1723.0,1763.0,1742.0,81.32933044433594,-38.64128112792969,-47.52611541748047,Left
4029.924560546875,63557,1,1751.0,1767.0,1815.0,1899.0,1737.0,1768.0,1763.0,1755.0,81.32933044433594,-38.64128112792969,-47.52611541748047,Left
4031.924560546875,63557,1,1766.0,1757.0,1718.0,1901.0,1773.0,1765.0,1757.0,1763.0,80.57695770263672,-39.0654182434082,-44.7395133972168,Left
4033.924560546875,63557,1,1771.0,1752.0,1913.0,1869.0,1769.0,1723.0,1763.0,1749.0,80.57695770263672,-39.0654182434082,-44.7395133972168,Left
4035.924560546875,63557,1,1748.0,1737.0,1839.0,1711.0,1743.0,1737.0,1758.0,1741.0,80.57695770263672,-39.0654182434082,-44.7395133972168,Left
4037.924560546875,63557,1,1753.0,1745.0,1815.0,1508.0,1749.0,1747.0,1763.0,1748.0,80.57695770263672,-39.0654182434082,-44.7395133972168,Left
4041.92529296875,63558,1,1763.0,1753.0,1747.0,1335.0,1748.0,1765.0,1764.0,1741.0,80.57695770263672,-39.0654182434082,-44.7395133972168,Left
4043.92529296875,63558,1,1747.0,1757.0,1679.0,1592.0,1743.0,1758.0,1757.0,1737.0,80.57695770263672,-39.0654182434082,-44.7395133972168,Left
4045.92529296875,63558,1,1759.0,1758.0,1839.0,1791.0,1743.0,1763.0,1755.0,1740.0,80.57695770263672,-39.0654182434082,-44.7395133972168,Left
4047.92529296875,63558,1,1754.0,1768.0,1883.0,1993.0,1753.0,1752.0,1759.0,1757.0,80.57695770263672,-39.0654182434082,-44.7395133972168,Left
4049.92529296875,63558,1,1758.0,1765.0,1881.0,2078.0,1757.0,1747.0,1762.0,1753.0,80.57695770263672,-39.0654182434082,-44.7395133972168,Left
4047.925537109375,63559,1,1755.0,1760.0,1695.0,1944.0,1751.0,1753.0,1752.0,1750.0,80.57695770263672,-39.0654182434082,-44.7395133972168,Left
4049.925537109375,63559,1,1757.0,1757.0,1701.0,1913.0,1749.0,1761.0,1759.0,1749.0,80.57695770263672,-39.0654182434082,-44.7395133972168,Left
4051.925537109375,63559,1,1762.0,1765.0,1813.0,1619.0,1749.0,1747.0,1759.0,1743.0,80.57695770263672,-39.0654182434082,-44.7395133972168,Left
4053.925537109375,63559,1,1755.0,1763.0,1750.0,1526.0,1754.0,1757.0,1759.0,1747.0,80.57695770263672,-39.0654182434082,-44.7395133972168,Left
4055.925537109375,63559,1,1747.0,1768.0,1786.0,1383.0,1749.0,1716.0,1765.0,1738.0,80.57695770263672,-39.0654182434082,-44.7395133972168,Left
4128.92578125,63560,1,1754.0,1765.0,1621.0,1454.0,1751.0,1756.0,1749.0,1743.0,80.57695770263672,-39.0654182434082,-44.7395133972168,Left
4130.92578125,63560,1,1774.0,1767.0,1762.0,1593.0,1755.0,1755.0,1757.0,1755.0,80.57695770263672,-39.0654182434082,-44.7395133972168,Left
4132.92578125,63560,1,1767.0,1769.0,1776.0,2125.0,1751.0,1751.0,1759.0,1753.0,80.57695770263672,-39.0654182434082,-44.7395133972168,Left
4134.92578125,63560,1,1756.0,1770.0,1781.0,2362.0,1753.0,1760.0,1759.0,1751.0,80.57695770263672,-39.0654182434082,-44.7395133972168,Left
4136.92578125,63560,1,1769.0,1769.0,1836.0,2367.0,1753.0,1747.0,1763.0,1755.0,80.57695770263672,-39.0654182434082,-44.7395133972168,Left
4128.92578125,63561,1,1765.0,1767.0,1801.0,2149.0,1748.0,1751.0,1753.0,1741.0,80.57695770263672,-39.0654182434082,-44.7395133972168,Left
4130.92578125,63561,1,1767.0,1765.0,1610.0,1975.0,1751.0,1749.0,1761.0,1753.0,80.57695770263672,-39.0654182434082,-44.7395133972168,Left
4132.92578125,63561,1,1757.0,1768.0,1661.0,1771.0,1787.0,1753.0,1764.0,1749.0,80.57695770263672,-39.0654182434082,-44.7395133972168,Left
4134.92578125,63561,1,1764.0,1769.0,1483.0,1686.0,1757.0,1755.0,1757.0,1753.0,80.57695770263672,-39.0654182434082,-44.7395133972168,Left
4136.92578125,63561,1,1762.0,1771.0,1757.0,1404.0,1750.0,1765.0,1763.0,1755.0,80.57695770263672,-39.0654182434082,-44.7395133972168,Left
4129.92529296875,63562,1,1752.0,1755.0,1902.0,1331.0,1752.0,1752.0,1757.0,1748.0,80.57695770263672,-39.0654182434082,-44.7395133972168,Left
4131.92529296875,63562,1,1762.0,1767.0,1898.0,1523.0,1753.0,1757.0,1757.0,1755.0,80.57695770263672,-39.0654182434082,-44.7395133972168,Left
4133.92529296875,63562,1,1763.0,1771.0,1812.0,1847.0,1753.0,1759.0,1755.0,1740.0,80.57695770263672,-39.0654182434082,-44.7395133972168,Left
4135.92529296875,63562,1,1753.0,1759.0,1817.0,2121.0,1747.0,1725.0,1759.0,1745.0,80.57695770263672,-39.0654182434082,-44.7395133972168,Left
4137.92529296875,63562,1,1752.0,1768.0,1963.0,2205.0,1741.0,1748.0,1759.0,1749.0,80.57695770263672,-39.0654182434082,-44.7395133972168,Left
4129.92529296875,63563,1,1752.0,1766.0,1944.0,2058.0,1749.0,1752.0,1758.0,1739.0,80.57695770263672,-39.0654182434082,-44.7395133972168,Left
4131.92529296875,63563,1,1756.0,1765.0,1703.0,1896.0,1757.0,1753.0,1757.0,1755.0,80.57695770263672,-39.0654182434082,-44.7395133972168,Left
4133.92529296875,63563,1,1775.0,1771.0,1588.0,1693.0,1771.0,1764.0,1758.0,1763.0,80.57695770263672,-39.0654182434082,-44.7395133972168,Left
4135.92529296875,63563,1,1757.0,1766.0,1763.0,1565.0,1742.0,1755.0,1763.0,1747.0,80.4791030883789,-39.1725959777832,-41.978084564208984,Left
4137.92529296875,63563,1,1753.0,1761.0,1677.0,1417.0,1753.0,1757.0,1759.0,1749.0,80.4791030883789,-39.1725959777832,-41.978084564208984,Left
4129.92529296875,63564,1,1751.0,1763.0,1897.0,1486.0,1743.0,1743.0,1740.0,1735.0,80.4791030883789,-39.1725959777832,-41.978084564208984,Left
4131.92529296875,63564,1,1747.0,1761.0,1961.0,1563.0,1750.0,1751.0,1763.0,1746.0,80.4791030883789,-39.1725959777832,-41.978084564208984,Left
4133.92529296875,63564,1,1755.0,1763.0,1818.0,1885.0,1753.0,1753.0,1762.0,1747.0,80.4791030883789,-39.1725959777832,-41.978084564208984,Left
4135.92529296875,63564,1,1763.0,1772.0,1615.0,2125.0,1752.0,1745.0,1761.0,1762.0,80.4791030883789,-39.1725959777832,-41.978084564208984,Left
4137.92529296875,63564,1,1769.0,1766.0,1755.0,2155.0,1753.0,1754.0,1762.0,1751.0,80.4791030883789,-39.1725959777832,-41.978084564208984,Left
4129.92529296875,63565,1,1755.0,1759.0,1685.0,2063.0,1749.0,1750.0,1759.0,1749.0,80.4791030883789,-39.1725959777832,-41.978084564208984,Left
4131.92529296875,63565,1,1741.0,1763.0,1775.0,1915.0,1750.0,1752.0,1763.0,1741.0,80.4791030883789,-39.1725959777832,-41.978084564208984,Left
4133.92529296875,63565,1,1763.0,1765.0,1769.0,1749.0,1750.0,1743.0,1763.0,1753.0,80.4791030883789,-39.1725959777832,-41.978084564208984,Left
4135.92529296875,63565,1,1755.0,1767.0,1861.0,1687.0,1752.0,1758.0,1763.0,1753.0,80.4791030883789,-39.1725959777832,-41.978084564208984,Left
4137.92529296875,63565,1,1775.0,1761.0,1799.0,1397.0,1751.0,1753.0,1762.0,1749.0,80.4791030883789,-39.1725959777832,-41.978084564208984,Left
4129.92529296875,63566,1,1762.0,1762.0,1613.0,1437.0,1755.0,1751.0,1757.0,1755.0,80.4791030883789,-39.1725959777832,-41.978084564208984,Left
4131.92529296875,63566,1,1770.0,1763.0,1711.0,1479.0,1753.0,1759.0,1763.0,1749.0,80.4791030883789,-39.1725959777832,-41.978084564208984,Left
4133.92529296875,63566,1,1763.0,1758.0,1861.0,1865.0,1748.0,1745.0,1759.0,1747.0,80.4791030883789,-39.1725959777832,-41.978084564208984,Left
4135.92529296875,63566,1,1756.0,1755.0,1885.0,2077.0,1749.0,1740.0,1762.0,1749.0,80.4791030883789,-39.1725959777832,-41.978084564208984,Left
4137.92529296875,63566,1,1759.0,1763.0,1821.0,2101.0,1753.0,1754.0,1759.0,1753.0,80.4791030883789,-39.1725959777832,-41.978084564208984,Left
4130.92529296875,63567,1,1765.0,1754.0,1894.0,2073.0,1753.0,1763.0,1757.0,1753.0,80.4791030883789,-39.1725959777832,-41.978084564208984,Left
4132.92529296875,63567,1,1765.0,1764.0,1831.0,1875.0,1754.0,1766.0,1757.0,1755.0,80.4791030883789,-39.1725959777832,-41.978084564208984,Left
4134.92529296875,63567,1,1755.0,1763.0,1656.0,1687.0,1753.0,1763.0,1763.0,1751.0,80.4791030883789,-39.1725959777832,-41.978084564208984,Left
4136.92529296875,63567,1,1768.0,1766.0,1763.0,1677.0,1752.0,1727.0,1763.0,1746.0,80.4791030883789,-39.1725959777832,-41.978084564208984,Left
4138.92529296875,63567,1,1767.0,1759.0,1581.0,1363.0,1749.0,1735.0,1763.0,1742.0,80.4791030883789,-39.1725959777832,-41.978084564208984,Left
4137.96923828125,63568,1,1765.0,1755.0,1782.0,1127.0,1751.0,1741.0,1762.0,1741.0,80.4791030883789,-39.1725959777832,-41.978084564208984,Left
4139.96923828125,63568,1,1763.0,1747.0,1644.0,1205.0,1743.0,1762.0,1759.0,1743.0,80.4791030883789,-39.1725959777832,-41.978084564208984,Left
4141.96923828125,63568,1,1754.0,1757.0,1573.0,1635.0,1751.0,1725.0,1759.0,1753.0,80.4791030883789,-39.1725959777832,-41.978084564208984,Left
4143.96923828125,63568,1,1771.0,1765.0,1645.0,1879.0,1757.0,1755.0,1763.0,1758.0,80.4791030883789,-39.1725959777832,-41.978084564208984,Left
4145.96923828125,63568,1,1755.0,1762.0,1800.0,2005.0,1751.0,1753.0,1763.0,1749.0,80.4791030883789,-39.1725959777832,-41.978084564208984,Left
4149.0185546875,63569,1,1759.0,1763.0,1691.0,1979.0,1751.0,1753.0,1763.0,1740.0,80.4791030883789,-39.1725959777832,-41.978084564208984,Left
4151.0185546875,63569,1,1757.0,1771.0,1491.0,1852.0,1747.0,1753.0,1761.0,1747.0,80.4791030883789,-39.1725959777832,-41.978084564208984,Left
4153.0185546875,63569,1,1758.0,1761.0,1693.0,1891.0,1758.0,1767.0,1755.0,1749.0,80.4791030883789,-39.1725959777832,-41.978084564208984,Left
4155.0185546875,63569,1,1752.0,1757.0,1613.0,1843.0,1746.0,1754.0,1755.0,1737.0,80.4791030883789,-39.1725959777832,-41.978084564208984,Left
4157.0185546875,63569,1,1749.0,1765.0,1721.0,1491.0,1746.0,1757.0,1757.0,1747.0,80.4791030883789,-39.1725959777832,-41.978084564208984,Left
4157.9267578125,63570,1,1768.0,1763.0,1626.0,1381.0,1757.0,1747.0,1756.0,1747.0,80.4791030883789,-39.1725959777832,-41.978084564208984,Left
4159.9267578125,63570,1,1755.0,1765.0,1587.0,1545.0,1755.0,1721.0,1763.0,1747.0,80.47826385498047,-38.87247848510742,-40.397300720214844,Left
4161.9267578125,63570,1,1762.0,1756.0,1651.0,1687.0,1766.0,1725.0,1764.0,1747.0,80.47826385498047,-38.87247848510742,-40.397300720214844,Left
4163.9267578125,63570,1,1768.0,1763.0,1629.0,2008.0,1762.0,1749.0,1759.0,1753.0,80.47826385498047,-38.87247848510742,-40.397300720214844,Left
4165.9267578125,63570,1,1747.0,1757.0,1657.0,2247.0,1749.0,1741.0,1759.0,1750.0,80.47826385498047,-38.87247848510742,-40.397300720214844,Left
4197.021484375,63571,1,1755.0,1757.0,1652.0,1963.0,1751.0,1771.0,1763.0,1753.0,80.47826385498047,-38.87247848510742,-40.397300720214844,Left
4199.021484375,63571,1,1751.0,1767.0,1767.0,1861.0,1747.0,1765.0,1759.0,1747.0,80.47826385498047,-38.87247848510742,-40.397300720214844,Left
4201.021484375,63571,1,1742.0,1757.0,1679.0,1661.0,1747.0,1754.0,1763.0,1742.0,80.47826385498047,-38.87247848510742,-40.397300720214844,Left
4203.021484375,63571,1,1757.0,1759.0,1827.0,1556.0,1751.0,1761.0,1759.0,1750.0,80.47826385498047,-38.87247848510742,-40.397300720214844,Left
4205.021484375,63571,1,1756.0,1763.0,1823.0,1381.0,1753.0,1770.0,1757.0,1747.0,80.47826385498047,-38.87247848510742,-40.397300720214844,Left
4197.021484375,63572,1,1775.0,1757.0,1811.0,1431.0,1759.0,1768.0,1758.0,1753.0,80.47826385498047,-38.87247848510742,-40.397300720214844,Left
4199.021484375,63572,1,1773.0,1767.0,1893.0,1619.0,1759.0,1779.0,1757.0,1751.0,80.47826385498047,-38.87247848510742,-40.397300720214844,Left
4201.021484375,63572,1,1752.0,1762.0,2019.0,1927.0,1753.0,1735.0,1763.0,1745.0,80.47826385498047,-38.87247848510742,-40.397300720214844,Left
4203.021484375,63572,1,1764.0,1759.0,1885.0,2019.0,1747.0,1663.0,1757.0,1741.0,80.47826385498047,-38.87247848510742,-40.397300720214844,Left
4205.021484375,63572,1,1742.0,1751.0,1893.0,2157.0,1741.0,1646.0,1763.0,1726.0,80.47826385498047,-38.87247848510742,-40.397300720214844,Left
4197.94921875,63573,1,1755.0,1749.0,1820.0,1991.0,1747.0,1771.0,1757.0,1750.0,80.47826385498047,-38.87247848510742,-40.397300720214844,Left
4199.94921875,63573,1,1759.0,1751.0,1691.0,1903.0,1753.0,1774.0,1761.0,1751.0,80.47826385498047,-38.87247848510742,-40.397300720214844,Left
4201.94921875,63573,1,1753.0,1757.0,1646.0,1837.0,1749.0,1766.0,1763.0,1753.0,80.47826385498047,-38.87247848510742,-40.397300720214844,Left
4203.94921875,63573,1,1769.0,1767.0,1767.0,1568.0,1758.0,1779.0,1762.0,1759.0,80.47826385498047,-38.87247848510742,-40.397300720214844,Left
4205.94921875,63573,1,1767.0,1764.0,1735.0,1420.0,1756.0,1759.0,1759.0,1743.0,80.47826385498047,-38.87247848510742,-40.397300720214844,Left
4197.94921875,63574,1,1751.0,1755.0,1907.0,1289.0,1747.0,1766.0,1763.0,1747.0,80.47826385498047,-38.87247848510742,-40.397300720214844,Left
4199.94921875,63574,1,1751.0,1755.0,2055.0,1529.0,1751.0,1755.0,1759.0,1747.0,80.47826385498047,-38.87247848510742,-40.397300720214844,Left
4201.94921875,63574,1,1759.0,1755.0,2037.0,1889.0,1747.0,1751.0,1759.0,1747.0,80.47826385498047,-38.87247848510742,-40.397300720214844,Left
4203.94921875,63574,1,1755.0,1756.0,2087.0,2103.0,1749.0,1751.0,1761.0,1747.0,80.47826385498047,-38.87247848510742,-40.397300720214844,Left
4205.94921875,63574,1,1753.0,1757.0,2135.0,2195.0,1747.0,1751.0,1757.0,1755.0,80.47826385498047,-38.87247848510742,-40.397300720214844,Left
4206.927734375,63575,1,1757.0,1763.0,1942.0,2086.0,1746.0,1753.0,1763.0,1749.0,80.47826385498047,-38.87247848510742,-40.397300720214844,Left
4208.927734375,63575,1,1757.0,1759.0,1941.0,2025.0,1753.0,1754.0,1765.0,1751.0,80.47826385498047,-38.87247848510742,-40.397300720214844,Left
4210.927734375,63575,1,1763.0,1766.0,1891.0,1868.0,1755.0,1763.0,1757.0,1755.0,80.47826385498047,-38.87247848510742,-40.397300720214844,Left
4212.927734375,63575,1,1765.0,1759.0,1589.0,1735.0,1749.0,1751.0,1767.0,1755.0,80.47826385498047,-38.87247848510742,-40.397300720214844,Left
4214.927734375,63575,1,1766.0,1759.0,1405.0,1399.0,1753.0,1753.0,1763.0,1753.0,80.47826385498047,-38.87247848510742,-40.397300720214844,Left
4216.9248046875,63576,1,1754.0,1758.0,1387.0,1330.0,1751.0,1746.0,1761.0,1749.0,80.47826385498047,-38.87247848510742,-40.397300720214844,Left
4218.9248046875,63576,1,1759.0,1763.0,1445.0,1359.0,1753.0,1765.0,1761.0,1755.0,80.47826385498047,-38.87247848510742,-40.397300720214844,Left
4220.9248046875,63576,1,1758.0,1757.0,1637.0,1699.0,1751.0,1752.0,1759.0,1747.0,80.47826385498047,-38.87247848510742,-40.397300720214844,Left
4222.9248046875,63576,1,1757.0,1763.0,1629.0,1941.0,1750.0,1752.0,1763.0,1747.0,80.16554260253906,-38.494136810302734,-39.6190071105957,Left
4224.9248046875,63576,1,1751.0,1765.0,1557.0,2073.0,1747.0,1765.0,1762.0,1751.0,80.16554260253906,-38.494136810302734,-39.6190071105957,Left
4227.9248046875,63577,1,1768.0,1765.0,1723.0,1980.0,1753.0,1751.0,1763.0,1752.0,80.16554260253906,-38.494136810302734,-39.6190071105957,Left
4229.9248046875,63577,1,1759.0,1763.0,1829.0,2044.0,1751.0,1755.0,1763.0,1747.0,80.16554260253906,-38.494136810302734,-39.6190071105957,Left
4231.9248046875,63577,1,1762.0,1759.0,1747.0,1931.0,1782.0,1727.0,1761.0,1743.0,80.16554260253906,-38.494136810302734,-39.6190071105957,Left
4233.9248046875,63577,1,1747.0,1756.0,1435.0,1613.0,1747.0,1701.0,1762.0,1736.0,80.16554260253906,-38.494136810302734,-39.6190071105957,Left
4235.9248046875,63577,1,1753.0,1758.0,1391.0,1337.0,1747.0,1739.0,1762.0,1749.0,80.16554260253906,-38.494136810302734,-39.6190071105957,Left
4238.92724609375,63578,1,1765.0,1757.0,1548.0,1359.0,1749.0,1769.0,1761.0,1739.0,80.16554260253906,-38.494136810302734,-39.6190071105957,Left
4240.92724609375,63578,1,1765.0,1765.0,1695.0,1515.0,1757.0,1763.0,1763.0,1757.0,80.16554260253906,-38.494136810302734,-39.6190071105957,Left
4242.92724609375,63578,1,1773.0,1766.0,1645.0,1803.0,1764.0,1767.0,1758.0,1755.0,80.16554260253906,-38.494136810302734,-39.6190071105957,Left
4244.92724609375,63578,1,1756.0,1765.0,1708.0,1957.0,1745.0,1755.0,1763.0,1741.0,80.16554260253906,-38.494136810302734,-39.6190071105957,Left
4246.92724609375,63578,1,1755.0,1763.0,1843.0,2183.0,1749.0,1755.0,1763.0,1742.0,80.16554260253906,-38.494136810302734,-39.6190071105957,Left
4246.9248046875,63579,1,1753.0,1758.0,1844.0,2023.0,1743.0,1751.0,1758.0,1743.0,80.16554260253906,-38.494136810302734,-39.6190071105957,Left
4248.9248046875,63579,1,1750.0,1757.0,1910.0,2003.0,1747.0,1753.0,1762.0,1750.0,80.16554260253906,-38.494136810302734,-39.6190071105957,Left
4250.9248046875,63579,1,1759.0,1761.0,1862.0,1925.0,1753.0,1755.0,1763.0,1763.0,80.16554260253906,-38.494136810302734,-39.6190071105957,Left
4252.9248046875,63579,1,1788.0,1771.0,1759.0,1779.0,1765.0,1759.0,1759.0,1773.0,80.16554260253906,-38.494136810302734,-39.6190071105957,Left
4254.9248046875,63579,1,1780.0,1766.0,1764.0,1640.0,1765.0,1759.0,1763.0,1755.0,80.16554260253906,-38.494136810302734,-39.6190071105957,Left
4256.9248046875,63580,1,1754.0,1780.0,1673.0,1661.0,1749.0,1758.0,1763.0,1739.0,80.16554260253906,-38.494136810302734,-39.6190071105957,Left
4258.9248046875,63580,1,1750.0,1756.0,1855.0,1643.0,1746.0,1749.0,1761.0,1739.0,80.16554260253906,-38.494136810302734,-39.6190071105957,Left
4260.9248046875,63580,1,1747.0,1763.0,1912.0,1881.0,1747.0,1755.0,1757.0,1747.0,80.16554260253906,-38.494136810302734,-39.6190071105957,Left
4262.9248046875,63580,1,1752.0,1753.0,2005.0,1995.0,1741.0,1741.0,1763.0,1739.0,80.16554260253906,-38.494136810302734,-39.6190071105957,Left
4264.9248046875,63580,1,1763.0,1757.0,1989.0,2122.0,1750.0,1743.0,1758.0,1747.0,80.16554260253906,-38.494136810302734,-39.6190071105957,Left
4267.93115234375,63581,1,1751.0,1762.0,1973.0,1895.0,1748.0,1736.0,1759.0,1746.0,80.16554260253906,-38.494136810302734,-39.6190071105957,Left
4269.93115234375,63581,1,1767.0,1758.0,1788.0,1875.0,1755.0,1749.0,1763.0,1757.0,80.16554260253906,-38.494136810302734,-39.6190071105957,Left
4271.93115234375,63581,1,1757.0,1763.0,1852.0,1752.0,1749.0,1752.0,1759.0,1749.0,80.16554260253906,-38.494136810302734,-39.6190071105957,Left
4273.93115234375,63581,1,1768.0,1763.0,1850.0,1722.0,1755.0,1761.0,1761.0,1755.0,80.16554260253906,-38.494136810302734,-39.6190071105957,Left
4275.93115234375,63581,1,1765.0,1755.0,1767.0,1605.0,1755.0,1752.0,1762.0,1749.0,80.16554260253906,-38.494136810302734,-39.6190071105957,Left
4332.92626953125,63582,1,1752.0,1763.0,1823.0,1389.0,1750.0,1757.0,1761.0,1747.0,80.16554260253906,-38.494136810302734,-39.6190071105957,Left
4334.92626953125,63582,1,1765.0,1765.0,1845.0,1494.0,1751.0,1765.0,1757.0,1750.0,80.16554260253906,-38.494136810302734,-39.6190071105957,Left
4336.92626953125,63582,1,1756.0,1758.0,1771.0,1797.0,1751.0,1763.0,1759.0,1749.0,80.16554260253906,-38.494136810302734,-39.6190071105957,Left
4338.92626953125,63582,1,1767.0,1756.0,1687.0,1919.0,1747.0,1740.0,1761.0,1754.0,80.16554260253906,-38.494136810302734,-39.6190071105957,Left
4340.92626953125,63582,1,1755.0,1761.0,1670.0,1917.0,1749.0,1737.0,1763.0,1749.0,80.16554260253906,-38.494136810302734,-39.6190071105957,Left
4333.92529296875,63583,1,1759.0,1762.0,1769.0,1889.0,1751.0,1743.0,1757.0,1751.0,79.48991394042969,-38.00263595581055,-39.482330322265625,Left
4335.92529296875,63583,1,1768.0,1763.0,1663.0,1767.0,1753.0,1759.0,1762.0,1756.0,79.48991394042969,-38.00263595581055,-39.482330322265625,Left
4337.92529296875,63583,1,1759.0,1763.0,1821.0,1499.0,1751.0,1751.0,1757.0,1743.0,79.48991394042969,-38.00263595581055,-39.482330322265625,Left
4339.92529296875,63583,1,1755.0,1756.0,1739.0,1435.0,1747.0,1739.0,1759.0,1741.0,79.48991394042969,-38.00263595581055,-39.482330322265625,Left
4341.92529296875,63583,1,1752.0,1757.0,1781.0,1243.0,1751.0,1747.0,1763.0,1745.0,79.48991394042969,-38.00263595581055,-39.482330322265625,Left
4333.92529296875,63584,1,1756.0,1759.0,1833.0,1291.0,1753.0,1749.0,1761.0,1751.0,79.48991394042969,-38.00263595581055,-39.482330322265625,Left
4335.92529296875,63584,1,1763.0,1763.0,1751.0,1420.0,1752.0,1759.0,1759.0,1748.0,79.48991394042969,-38.00263595581055,-39.482330322265625,Left
4337.92529296875,63584,1,1755.0,1759.0,1894.0,1787.0,1758.0,1755.0,1758.0,1751.0,79.48991394042969,-38.00263595581055,-39.482330322265625,Left
4339.92529296875,63584,1,1765.0,1758.0,1967.0,1993.0,1752.0,1763.0,1759.0,1751.0,79.48991394042969,-38.00263595581055,-39.482330322265625,Left
4341.92529296875,63584,1,1743.0,1753.0,1960.0,2101.0,1742.0,1748.0,1762.0,1743.0,79.48991394042969,-38.00263595581055,-39.482330322265625,Left
4333.92529296875,63585,1,1749.0,1755.0,1999.0,2004.0,1741.0,1755.0,1763.0,1741.0,79.48991394042969,-38.00263595581055,-39.482330322265625,Left
4335.92529296875,63585,1,1755.0,1764.0,1925.0,2039.0,1755.0,1749.0,1763.0,1757.0,79.48991394042969,-38.00263595581055,-39.482330322265625,Left
4337.92529296875,63585,1,1773.0,1769.0,1767.0,1853.0,1767.0,1751.0,1761.0,1757.0,79.48991394042969,-38.00263595581055,-39.482330322265625,Left
4339.92529296875,63585,1,1769.0,1758.0,1567.0,1553.0,1758.0,1756.0,1761.0,1756.0,79.48991394042969,-38.00263595581055,-39.482330322265625,Left
4341.92529296875,63585,1,1757.0,1765.0,1579.0,1333.0,1751.0,1747.0,1761.0,1750.0,79.48991394042969,-38.00263595581055,-39.482330322265625,Left
4334.92626953125,63586,1,1758.0,1749.0,1748.0,1433.0,1751.0,1755.0,1757.0,1750.0,79.48991394042969,-38.00263595581055,-39.482330322265625,Left
4336.92626953125,63586,1,1754.0,1759.0,1673.0,1635.0,1751.0,1754.0,1762.0,1740.0,79.48991394042969,-38.00263595581055,-39.482330322265625,Left
4338.92626953125,63586,1,1757.0,1759.0,1599.0,1895.0,1749.0,1748.0,1758.0,1740.0,79.48991394042969,-38.00263595581055,-39.482330322265625,Left
4340.92626953125,63586,1,1755.0,1759.0,1715.0,2043.0,1751.0,1748.0,1761.0,1751.0,79.48991394042969,-38.00263595581055,-39.482330322265625,Left
4342.92626953125,63586,1,1757.0,1765.0,1757.0,2133.0,1752.0,1747.0,1759.0,1754.0,79.48991394042969,-38.00263595581055,-39.482330322265625,Left
4334.92626953125,63587,1,1757.0,1751.0,1875.0,2135.0,1748.0,1747.0,1762.0,1750.0,79.48991394042969,-38.00263595581055,-39.482330322265625,Left
4336.92626953125,63587,1,1756.0,1757.0,1716.0,2136.0,1752.0,1741.0,1757.0,1749.0,79.48991394042969,-38.00263595581055,-39.482330322265625,Left
4338.92626953125,63587,1,1756.0,1765.0,1765.0,1968.0,1748.0,1759.0,1758.0,1747.0,79.48991394042969,-38.00263595581055,-39.482330322265625,Left
4340.92626953125,63587,1,1750.0,1759.0,1710.0,1663.0,1747.0,1763.0,1762.0,1743.0,79.48991394042969,-38.00263595581055,-39.482330322265625,Left
4342.92626953125,63587,1,1751.0,1763.0,1532.0,1414.0,1748.0,1757.0,1762.0,1748.0,79.48991394042969,-38.00263595581055,-39.482330322265625,Left
4336.92529296875,63588,1,1765.0,1763.0,1547.0,1470.0,1753.0,1751.0,1765.0,1755.0,79.48991394042969,-38.00263595581055,-39.482330322265625,Left
4338.92529296875,63588,1,1771.0,1763.0,1761.0,1675.0,1757.0,1719.0,1759.0,1756.0,79.48991394042969,-38.00263595581055,-39.482330322265625,Left
4340.92529296875,63588,1,1765.0,1759.0,1981.0,2015.0,1759.0,1753.0,1756.0,1763.0,79.48991394042969,-38.00263595581055,-39.482330322265625,Left
4342.92529296875,63588,1,1762.0,1761.0,1900.0,2124.0,1754.0,1751.0,1757.0,1747.0,79.48991394042969,-38.00263595581055,-39.482330322265625,Left
4344.92529296875,63588,1,1757.0,1763.0,1819.0,2067.0,1741.0,1755.0,1762.0,1749.0,79.48991394042969,-38.00263595581055,-39.482330322265625,Left
4347.927734375,63589,1,1758.0,1747.0,1647.0,1965.0,1747.0,1753.0,1765.0,1749.0,79.48991394042969,-38.00263595581055,-39.482330322265625,Left
4349.927734375,63589,1,1757.0,1757.0,1805.0,1833.0,1753.0,1758.0,1763.0,1756.0,79.48991394042969,-38.00263595581055,-39.482330322265625,Left
4351.927734375,63589,1,1765.0,1757.0,1609.0,1719.0,1750.0,1756.0,1759.0,1751.0,79.48991394042969,-38.00263595581055,-39.482330322265625,Left
4353.927734375,63589,1,1755.0,1763.0,1753.0,1768.0,1751.0,1752.0,1759.0,1745.0,79.15857696533203,-37.85054397583008,-39.59315490722656,Left
4355.927734375,63589,1,1753.0,1757.0,1692.0,1553.0,1750.0,1741.0,1763.0,1739.0,79.15857696533203,-37.85054397583008,-39.59315490722656,Left
4357.95947265625,63590,1,1752.0,1763.0,1721.0,1353.0,1748.0,1751.0,1762.0,1751.0,79.15857696533203,-37.85054397583008,-39.59315490722656,Left
4359.95947265625,63590,1,1764.0,1763.0,1605.0,1565.0,1751.0,1757.0,1757.0,1748.0,79.15857696533203,-37.85054397583008,-39.59315490722656,Left
4361.95947265625,63590,1,1756.0,1757.0,1565.0,1735.0,1748.0,1746.0,1759.0,1751.0,79.15857696533203,-37.85054397583008,-39.59315490722656,Left
4363.95947265625,63590,1,1765.0,1764.0,1723.0,1775.0,1753.0,1748.0,1763.0,1755.0,79.15857696533203,-37.85054397583008,-39.59315490722656,Left
4365.95947265625,63590,1,1757.0,1759.0,1820.0,1880.0,1749.0,1757.0,1762.0,1749.0,79.15857696533203,-37.85054397583008,-39.59315490722656,Left
4369.92578125,63591,1,1751.0,1757.0,1738.0,1967.0,1748.0,1750.0,1757.0,1745.0,79.15857696533203,-37.85054397583008,-39.59315490722656,Left
4371.92578125,63591,1,1750.0,1765.0,1695.0,1817.0,1747.0,1755.0,1762.0,1742.0,79.15857696533203,-37.85054397583008,-39.59315490722656,Left
4373.92578125,63591,1,1767.0,1764.0,1759.0,1652.0,1748.0,1757.0,1756.0,1753.0,79.15857696533203,-37.85054397583008,-39.59315490722656,Left
4375.92578125,63591,1,1769.0,1766.0,1688.0,1460.0,1765.0,1750.0,1759.0,1757.0,79.15857696533203,-37.85054397583008,-39.59315490722656,Left
4377.92578125,63591,1,1767.0,1767.0,1420.0,1261.0,1753.0,1753.0,1759.0,1749.0,79.15857696533203,-37.85054397583008,-39.59315490722656,Left
4379.9248046875,63592,1,1763.0,1765.0,1682.0,1285.0,1755.0,1754.0,1758.0,1733.0,79.15857696533203,-37.85054397583008,-39.59315490722656,Left
4381.9248046875,63592,1,1751.0,1757.0,1689.0,1403.0,1747.0,1737.0,1762.0,1743.0,79.15857696533203,-37.85054397583008,-39.59315490722656,Left
4383.9248046875,63592,1,1761.0,1756.0,1757.0,1815.0,1752.0,1749.0,1760.0,1746.0,79.15857696533203,-37.85054397583008,-39.59315490722656,Left
4385.9248046875,63592,1,1754.0,1756.0,1773.0,2092.0,1751.0,1747.0,1759.0,1747.0,79.15857696533203,-37.85054397583008,-39.59315490722656,Left
4387.9248046875,63592,1,1764.0,1763.0,2073.0,2141.0,1749.0,1753.0,1762.0,1756.0,79.15857696533203,-37.85054397583008,-39.59315490722656,Left
4391.92529296875,63593,1,1756.0,1755.0,2031.0,1951.0,1743.0,1762.0,1759.0,1749.0,79.15857696533203,-37.85054397583008,-39.59315490722656,Left
4393.92529296875,63593,1,1755.0,1756.0,1891.0,1899.0,1749.0,1751.0,1763.0,1743.0,79.15857696533203,-37.85054397583008,-39.59315490722656,Left
4395.92529296875,63593,1,1755.0,1756.0,1916.0,1798.0,1747.0,1719.0,1762.0,1739.0,79.15857696533203,-37.85054397583008,-39.59315490722656,Left
4397.92529296875,63593,1,1764.0,1759.0,1851.0,1657.0,1751.0,1751.0,1759.0,1752.0,79.15857696533203,-37.85054397583008,-39.59315490722656,Left
4399.92529296875,63593,1,1753.0,1757.0,1664.0,1433.0,1752.0,1751.0,1759.0,1753.0,79.15857696533203,-37.85054397583008,-39.59315490722656,Left
4399.9248046875,63594,1,1759.0,1764.0,1563.0,1420.0,1751.0,1759.0,1761.0,1749.0,79.15857696533203,-37.85054397583008,-39.59315490722656,Left
4401.9248046875,63594,1,1753.0,1759.0,1657.0,1513.0,1751.0,1752.0,1757.0,1750.0,79.15857696533203,-37.85054397583008,-39.59315490722656,Left
4403.9248046875,63594,1,1769.0,1765.0,1655.0,1867.0,1757.0,1739.0,1758.0,1749.0,79.15857696533203,-37.85054397583008,-39.59315490722656,Left
4405.9248046875,63594,1,1765.0,1756.0,1753.0,1881.0,1755.0,1747.0,1761.0,1753.0,79.15857696533203,-37.85054397583008,-39.59315490722656,Left
4407.9248046875,63594,1,1765.0,1762.0,1855.0,2060.0,1751.0,1749.0,1758.0,1755.0,79.15857696533203,-37.85054397583008,-39.59315490722656,Left
4432.98388671875,63595,1,1755.0,1755.0,1881.0,1949.0,1753.0,1749.0,1751.0,1743.0,79.15857696533203,-37.85054397583008,-39.59315490722656,Left
4434.98388671875,63595,1,1751.0,1758.0,1949.0,1911.0,1749.0,1747.0,1763.0,1743.0,79.15857696533203,-37.85054397583008,-39.59315490722656,Left
4436.98388671875,63595,1,1763.0,1757.0,1695.0,1944.0,1751.0,1755.0,1759.0,1749.0,79.15857696533203,-37.85054397583008,-39.59315490722656,Left
4438.98388671875,63595,1,1767.0,1755.0,1511.0,1811.0,1749.0,1757.0,1759.0,1752.0,79.15857696533203,-37.85054397583008,-39.59315490722656,Left
4440.98388671875,63595,1,1763.0,1764.0,1625.0,1547.0,1755.0,1757.0,1759.0,1753.0,79.15857696533203,-37.85054397583008,-39.59315490722656,Left
4432.98388671875,63596,1,1754.0,1763.0,1655.0,1487.0,1748.0,1757.0,1763.0,1749.0,79.34437561035156,-37.973243713378906,-39.67765808105469,Left
4434.98388671875,63596,1,1759.0,1757.0,1749.0,1626.0,1753.0,1752.0,1762.0,1741.0,79.34437561035156,-37.973243713378906,-39.67765808105469,Left
4436.98388671875,63596,1,1753.0,1757.0,1645.0,1727.0,1747.0,1751.0,1763.0,1743.0,79.34437561035156,-37.973243713378906,-39.67765808105469,Left
4438.98388671875,63596,1,1753.0,1757.0,1911.0,1981.0,1751.0,1735.0,1759.0,1747.0,79.34437561035156,-37.973243713378906,-39.67765808105469,Left
4440.98388671875,63596,1,1764.0,1763.0,1831.0,2135.0,1755.0,1750.0,1764.0,1751.0,79.34437561035156,-37.973243713378906,-39.67765808105469,Left
4433.93212890625,63597,1,1763.0,1761.0,1727.0,2071.0,1756.0,1757.0,1765.0,1755.0,79.34437561035156,-37.973243713378906,-39.67765808105469,Left
4435.93212890625,63597,1,1767.0,1759.0,1753.0,2142.0,1753.0,1736.0,1763.0,1746.0,79.34437561035156,-37.973243713378906,-39.67765808105469,Left
4437.93212890625,63597,1,1757.0,1759.0,1497.0,1867.0,1755.0,1749.0,1763.0,1749.0,79.34437561035156,-37.973243713378906,-39.67765808105469,Left
4439.93212890625,63597,1,1755.0,1769.0,1611.0,1672.0,1752.0,1740.0,1763.0,1745.0,79.34437561035156,-37.973243713378906,-39.67765808105469,Left
4441.93212890625,63597,1,1750.0,1759.0,1619.0,1371.0,1747.0,1739.0,1759.0,1743.0,79.34437561035156,-37.973243713378906,-39.67765808105469,Left
4437.93115234375,63598,1,1769.0,1762.0,1805.0,1338.0,1753.0,1765.0,1752.0,1735.0,79.34437561035156,-37.973243713378906,-39.67765808105469,Left
4439.93115234375,63598,1,1759.0,1762.0,1871.0,1623.0,1747.0,1757.0,1757.0,1745.0,79.34437561035156,-37.973243713378906,-39.67765808105469,Left
4441.93115234375,63598,1,1753.0,1759.0,1955.0,1993.0,1751.0,1751.0,1761.0,1741.0,79.34437561035156,-37.973243713378906,-39.67765808105469,Left
4443.93115234375,63598,1,1756.0,1769.0,1810.0,2083.0,1751.0,1755.0,1757.0,1747.0,79.34437561035156,-37.973243713378906,-39.67765808105469,Left
4445.93115234375,63598,1,1758.0,1763.0,1824.0,2093.0,1755.0,1719.0,1757.0,1751.0,79.34437561035156,-37.973243713378906,-39.67765808105469,Left
4448.9453125,63599,1,1753.0,1755.0,1933.0,1997.0,1747.0,1738.0,1757.0,1749.0,79.34437561035156,-37.973243713378906,-39.67765808105469,Left
4450.9453125,63599,1,1758.0,1756.0,1829.0,1916.0,1754.0,1724.0,1763.0,1753.0,79.34437561035156,-37.973243713378906,-39.67765808105469,Left
4452.9453125,63599,1,1753.0,1758.0,1743.0,1699.0,1752.0,1749.0,1763.0,1747.0,79.34437561035156,-37.973243713378906,-39.67765808105469,Left
4454.9453125,63599,1,1759.0,1773.0,1802.0,1545.0,1755.0,1765.0,1759.0,1751.0,79.34437561035156,-37.973243713378906,-39.67765808105469,Left
4456.9453125,63599,1,1767.0,1761.0,1595.0,1237.0,1756.0,1748.0,1759.0,1743.0,79.34437561035156,-37.973243713378906,-39.67765808105469,Left
4458.9248046875,63600,1,1768.0,1755.0,1620.0,1187.0,1752.0,1767.0,1747.0,1736.0,79.34437561035156,-37.973243713378906,-39.67765808105469,Left
4460.9248046875,63600,1,1753.0,1763.0,1637.0,1241.0,1752.0,1769.0,1752.0,1753.0,79.34437561035156,-37.973243713378906,-39.67765808105469,Left
4462.9248046875,63600,1,1765.0,1759.0,1637.0,1638.0,1755.0,1741.0,1758.0,1757.0,79.34437561035156,-37.973243713378906,-39.67765808105469,Left
4464.9248046875,63600,1,1755.0,1766.0,1553.0,1863.0,1753.0,1754.0,1758.0,1750.0,79.34437561035156,-37.973243713378906,-39.67765808105469,Left
4466.9248046875,63600,1,1753.0,1763.0,1628.0,2068.0,1747.0,1754.0,1759.0,1749.0,79.34437561035156,-37.973243713378906,-39.67765808105469,Left
4468.9267578125,63601,1,1756.0,1761.0,1831.0,1945.0,1751.0,1752.0,1753.0,1736.0,79.34437561035156,-37.973243713378906,-39.67765808105469,Left
4470.9267578125,63601,1,1755.0,1761.0,1867.0,1771.0,1749.0,1754.0,1762.0,1742.0,79.34437561035156,-37.973243713378906,-39.67765808105469,Left
4472.9267578125,63601,1,1757.0,1759.0,1875.0,1789.0,1752.0,1755.0,1757.0,1745.0,79.34437561035156,-37.973243713378906,-39.67765808105469,Left
4474.9267578125,63601,1,1755.0,1764.0,1820.0,1835.0,1748.0,1757.0,1754.0,1747.0,79.34437561035156,-37.973243713378906,-39.67765808105469,Left
4476.9267578125,63601,1,1767.0,1765.0,1739.0,1491.0,1757.0,1757.0,1763.0,1753.0,79.34437561035156,-37.973243713378906,-39.67765808105469,Left
4482.99072265625,63602,1,1769.0,1762.0,1802.0,1483.0,1753.0,1737.0,1748.0,1743.0,79.34437561035156,-37.973243713378906,-39.67765808105469,Left
4484.99072265625,63602,1,1757.0,1759.0,1651.0,1620.0,1751.0,1756.0,1759.0,1748.0,79.34437561035156,-37.973243713378906,-39.67765808105469,Left
4486.99072265625,63602,1,1765.0,1757.0,1523.0,1880.0,1706.0,1747.0,1759.0,1743.0,79.34437561035156,-37.973243713378906,-39.67765808105469,Left
4488.99072265625,63602,1,1756.0,1763.0,1620.0,2056.0,1749.0,1740.0,1763.0,1743.0,79.24784088134766,-38.36368179321289,-39.551048278808594,Left
4490.99072265625,63602,1,1756.0,1757.0,1863.0,2053.0,1748.0,1751.0,1757.0,1753.0,79.24784088134766,-38.36368179321289,-39.551048278808594,Left
4493.93359375,63603,1,1768.0,1766.0,1930.0,2005.0,1745.0,1750.0,1755.0,1741.0,79.24784088134766,-38.36368179321289,-39.551048278808594,Left
4495.93359375,63603,1,1757.0,1765.0,1837.0,1892.0,1753.0,1753.0,1759.0,1751.0,79.24784088134766,-38.36368179321289,-39.551048278808594,Left
4497.93359375,63603,1,1755.0,1763.0,1749.0,1816.0,1749.0,1759.0,1764.0,1754.0,79.24784088134766,-38.36368179321289,-39.551048278808594,Left
4499.93359375,63603,1,1757.0,1763.0,1779.0,1767.0,1748.0,1758.0,1759.0,1749.0,79.24784088134766,-38.36368179321289,-39.551048278808594,Left
4501.93359375,63603,1,1751.0,1763.0,1638.0,1351.0,1747.0,1754.0,1758.0,1746.0,79.24784088134766,-38.36368179321289,-39.551048278808594,Left
4496.92529296875,63604,1,1763.0,1759.0,1609.0,1339.0,1748.0,1725.0,1762.0,1745.0,79.24784088134766,-38.36368179321289,-39.551048278808594,Left
4498.92529296875,63604,1,1757.0,1749.0,1455.0,1528.0,1750.0,1753.0,1762.0,1743.0,79.24784088134766,-38.36368179321289,-39.551048278808594,Left
4500.92529296875,63604,1,1767.0,1765.0,1615.0,1853.0,1762.0,1751.0,1759.0,1763.0,79.24784088134766,-38.36368179321289,-39.551048278808594,Left
4502.92529296875,63604,1,1775.0,1767.0,1691.0,2025.0,1753.0,1733.0,1764.0,1752.0,79.24784088134766,-38.36368179321289,-39.551048278808594,Left
4504.92529296875,63604,1,1755.0,1763.0,1799.0,2083.0,1748.0,1751.0,1763.0,1749.0,79.24784088134766,-38.36368179321289,-39.551048278808594,Left
4506.9248046875,63605,1,1759.0,1758.0,1885.0,1950.0,1748.0,1755.0,1759.0,1748.0,79.24784088134766,-38.36368179321289,-39.551048278808594,Left
4508.9248046875,63605,1,1747.0,1755.0,1773.0,1949.0,1747.0,1751.0,1762.0,1747.0,79.24784088134766,-38.36368179321289,-39.551048278808594,Left
4510.9248046875,63605,1,1751.0,1759.0,1737.0,1934.0,1747.0,1763.0,1762.0,1751.0,79.24784088134766,-38.36368179321289,-39.551048278808594,Left
4512.9248046875,63605,1,1757.0,1763.0,1787.0,1867.0,1749.0,1755.0,1762.0,1747.0,79.24784088134766,-38.36368179321289,-39.551048278808594,Left
4514.9248046875,63605,1,1756.0,1763.0,1823.0,1607.0,1751.0,1753.0,1758.0,1747.0,79.24784088134766,-38.36368179321289,-39.551048278808594,Left
4520.9248046875,63606,1,1773.0,1763.0,1848.0,1527.0,1756.0,1753.0,1763.0,1752.0,79.24784088134766,-38.36368179321289,-39.551048278808594,Left
4522.9248046875,63606,1,1753.0,1762.0,1851.0,1671.0,1755.0,1757.0,1763.0,1746.0,79.24784088134766,-38.36368179321289,-39.551048278808594,Left
4524.9248046875,63606,1,1755.0,1763.0,1775.0,2043.0,1750.0,1741.0,1763.0,1743.0,79.24784088134766,-38.36368179321289,-39.551048278808594,Left
4526.9248046875,63606,1,1763.0,1755.0,1865.0,2271.0,1751.0,1741.0,1757.0,1751.0,79.24784088134766,-38.36368179321289,-39.551048278808594,Left
4528.9248046875,63606,1,1763.0,1763.0,1945.0,2212.0,1753.0,1749.0,1762.0,1749.0,79.24784088134766,-38.36368179321289,-39.551048278808594,Left
4550.92529296875,63607,1,1753.0,1753.0,1915.0,2035.0,1752.0,1753.0,1751.0,1741.0,79.24784088134766,-38.36368179321289,-39.551048278808594,Left
4552.92529296875,63607,1,1756.0,1764.0,1997.0,1897.0,1751.0,1749.0,1759.0,1747.0,79.24784088134766,-38.36368179321289,-39.551048278808594,Left
4554.92529296875,63607,1,1753.0,1755.0,1743.0,1782.0,1752.0,1751.0,1763.0,1752.0,79.24784088134766,-38.36368179321289,-39.551048278808594,Left
4556.92529296875,63607,1,1756.0,1758.0,1622.0,1528.0,1749.0,1743.0,1759.0,1754.0,79.24784088134766,-38.36368179321289,-39.551048278808594,Left
4558.92529296875,63607,1,1764.0,1766.0,1659.0,1395.0,1753.0,1756.0,1757.0,1751.0,79.24784088134766,-38.36368179321289,-39.551048278808594,Left
4550.92529296875,63608,1,1757.0,1765.0,1645.0,1371.0,1751.0,1755.0,1756.0,1752.0,79.24784088134766,-38.36368179321289,-39.551048278808594,Left
4552.92529296875,63608,1,1756.0,1763.0,1413.0,1423.0,1749.0,1752.0,1761.0,1745.0,79.24784088134766,-38.36368179321289,-39.551048278808594,Left
4554.92529296875,63608,1,1755.0,1755.0,1711.0,1691.0,1747.0,1751.0,1763.0,1745.0,79.24784088134766,-38.36368179321289,-39.551048278808594,Left
4556.92529296875,63608,1,1758.0,1759.0,1899.0,1867.0,1747.0,1752.0,1762.0,1754.0,79.24784088134766,-38.36368179321289,-39.551048278808594,Left
4558.92529296875,63608,1,1764.0,1757.0,1782.0,1915.0,1754.0,1758.0,1759.0,1753.0,79.24784088134766,-38.36368179321289,-39.551048278808594,Left
4551.92626953125,63609,1,1767.0,1754.0,1735.0,2001.0,1756.0,1742.0,1763.0,1752.0,79.24784088134766,-38.36368179321289,-39.551048278808594,Left
4553.92626953125,63609,1,1765.0,1759.0,1848.0,2023.0,1753.0,1751.0,1759.0,1755.0,79.31623077392578,-38.75499725341797,-39.46622848510742,Left
4555.92626953125,63609,1,1759.0,1767.0,1837.0,1847.0,1753.0,1753.0,1763.0,1749.0,79.31623077392578,-38.75499725341797,-39.46622848510742,Left
4557.92626953125,63609,1,1753.0,1755.0,1876.0,1706.0,1749.0,1754.0,1769.0,1742.0,79.31623077392578,-38.75499725341797,-39.46622848510742,Left
4559.92626953125,63609,1,1752.0,1763.0,1755.0,1463.0,1753.0,1751.0,1759.0,1739.0,79.31623077392578,-38.75499725341797,-39.46622848510742,Left
4557.92626953125,63610,1,1752.0,1757.0,1883.0,1478.0,1747.0,1755.0,1761.0,1739.0,79.31623077392578,-38.75499725341797,-39.46622848510742,Left
4559.92626953125,63610,1,1755.0,1759.0,1885.0,1492.0,1749.0,1739.0,1763.0,1755.0,79.31623077392578,-38.75499725341797,-39.46622848510742,Left
4561.92626953125,63610,1,1769.0,1763.0,1983.0,1783.0,1756.0,1761.0,1759.0,1757.0,79.31623077392578,-38.75499725341797,-39.46622848510742,Left
4563.92626953125,63610,1,1767.0,1765.0,1895.0,1961.0,1757.0,1751.0,1763.0,1757.0,79.31623077392578,-38.75499725341797,-39.46622848510742,Left
4565.92626953125,63610,1,1756.0,1759.0,1908.0,2063.0,1750.0,1759.0,1763.0,1749.0,79.31623077392578,-38.75499725341797,-39.46622848510742,Left
4567.9677734375,63611,1,1752.0,1755.0,2009.0,2005.0,1751.0,1737.0,1757.0,1753.0,79.31623077392578,-38.75499725341797,-39.46622848510742,Left
4569.9677734375,63611,1,1755.0,1763.0,1725.0,1891.0,1751.0,1751.0,1759.0,1751.0,79.31623077392578,-38.75499725341797,-39.46622848510742,Left
4571.9677734375,63611,1,1757.0,1763.0,1799.0,1727.0,1750.0,1755.0,1758.0,1749.0,79.31623077392578,-38.75499725341797,-39.46622848510742,Left
4573.9677734375,63611,1,1755.0,1757.0,1704.0,1607.0,1751.0,1742.0,1763.0,1747.0,79.31623077392578,-38.75499725341797,-39.46622848510742,Left
4575.9677734375,63611,1,1753.0,1757.0,1597.0,1299.0,1751.0,1736.0,1757.0,1748.0,79.31623077392578,-38.75499725341797,-39.46622848510742,Left
4576.9248046875,63612,1,1755.0,1759.0,1575.0,1465.0,1751.0,1750.0,1763.0,1739.0,79.31623077392578,-38.75499725341797,-39.46622848510742,Left
4578.9248046875,63612,1,1747.0,1762.0,1587.0,1575.0,1753.0,1757.0,1763.0,1751.0,79.31623077392578,-38.75499725341797,-39.46622848510742,Left
4580.9248046875,63612,1,1758.0,1759.0,1733.0,1787.0,1749.0,1750.0,1757.0,1751.0,79.31623077392578,-38.75499725341797,-39.46622848510742,Left
4582.9248046875,63612,1,1753.0,1755.0,1677.0,1976.0,1743.0,1747.0,1759.0,1741.0,79.31623077392578,-38.75499725341797,-39.46622848510742,Left
4584.9248046875,63612,1,1747.0,1757.0,2029.0,2117.0,1747.0,1722.0,1763.0,1738.0,79.31623077392578,-38.75499725341797,-39.46622848510742,Left
4597.0546875,63613,1,1755.0,1757.0,1887.0,1962.0,1749.0,1749.0,1759.0,1751.0,79.31623077392578,-38.75499725341797,-39.46622848510742,Left
4599.0546875,63613,1,1763.0,1763.0,1747.0,1892.0,1751.0,1763.0,1759.0,1763.0,79.31623077392578,-38.75499725341797,-39.46622848510742,Left
4601.0546875,63613,1,1765.0,1767.0,1659.0,1605.0,1765.0,1771.0,1757.0,1767.0,79.31623077392578,-38.75499725341797,-39.46622848510742,Left
4603.0546875,63613,1,1768.0,1768.0,1735.0,1509.0,1758.0,1755.0,1763.0,1753.0,79.31623077392578,-38.75499725341797,-39.46622848510742,Left
4605.0546875,63613,1,1763.0,1767.0,1644.0,1269.0,1749.0,1759.0,1759.0,1747.0,79.31623077392578,-38.75499725341797,-39.46622848510742,Left
4597.0546875,63614,1,1749.0,1757.0,1567.0,1301.0,1751.0,1751.0,1759.0,1747.0,79.31623077392578,-38.75499725341797,-39.46622848510742,Left
4599.0546875,63614,1,1751.0,1757.0,1629.0,1433.0,1752.0,1753.0,1762.0,1739.0,79.31623077392578,-38.75499725341797,-39.46622848510742,Left
4601.0546875,63614,1,1755.0,1757.0,1605.0,1882.0,1749.0,1752.0,1759.0,1749.0,79.31623077392578,-38.75499725341797,-39.46622848510742,Left
4603.0546875,63614,1,1743.0,1754.0,1816.0,2135.0,1741.0,1747.0,1759.0,1743.0,79.31623077392578,-38.75499725341797,-39.46622848510742,Left
4605.0546875,63614,1,1757.0,1750.0,1843.0,2141.0,1743.0,1751.0,1759.0,1749.0,79.31623077392578,-38.75499725341797,-39.46622848510742,Left
4607.169921875,63615,1,1756.0,1756.0,1944.0,2077.0,1741.0,1754.0,1759.0,1749.0,79.31623077392578,-38.75499725341797,-39.46622848510742,Left
4609.169921875,63615,1,1757.0,1767.0,1926.0,1927.0,1751.0,1749.0,1759.0,1749.0,79.31623077392578,-38.75499725341797,-39.46622848510742,Left
4611.169921875,63615,1,1757.0,1767.0,1925.0,1717.0,1755.0,1753.0,1758.0,1754.0,79.31623077392578,-38.75499725341797,-39.46622848510742,Left
4613.169921875,63615,1,1763.0,1758.0,1765.0,1587.0,1753.0,1741.0,1763.0,1749.0,79.23126220703125,-38.94020080566406,-39.31749725341797,Left
4615.169921875,63615,1,1763.0,1756.0,1850.0,1286.0,1748.0,1751.0,1759.0,1748.0,79.23126220703125,-38.94020080566406,-39.31749725341797,Left
4616.234375,63616,1,1749.0,1751.0,1837.0,1273.0,1751.0,1741.0,1763.0,1751.0,79.23126220703125,-38.94020080566406,-39.31749725341797,Left
4618.234375,63616,1,1763.0,1757.0,1845.0,1509.0,1749.0,1767.0,1764.0,1750.0,79.23126220703125,-38.94020080566406,-39.31749725341797,Left
4620.234375,63616,1,1765.0,1764.0,1875.0,1997.0,1754.0,1755.0,1759.0,1749.0,79.23126220703125,-38.94020080566406,-39.31749725341797,Left
4622.234375,63616,1,1757.0,1761.0,1763.0,1951.0,1753.0,1747.0,1763.0,1748.0,79.23126220703125,-38.94020080566406,-39.31749725341797,Left
4624.234375,63616,1,1753.0,1764.0,1828.0,2006.0,1746.0,1708.0,1755.0,1747.0,79.23126220703125,-38.94020080566406,-39.31749725341797,Left
4627.234375,63617,1,1767.0,1759.0,1715.0,2008.0,1749.0,1753.0,1758.0,1749.0,79.23126220703125,-38.94020080566406,-39.31749725341797,Left
4629.234375,63617,1,1753.0,1765.0,1640.0,2015.0,1752.0,1755.0,1763.0,1751.0,79.23126220703125,-38.94020080566406,-39.31749725341797,Left
4631.234375,63617,1,1757.0,1765.0,1660.0,1886.0,1753.0,1765.0,1757.0,1749.0,79.23126220703125,-38.94020080566406,-39.31749725341797,Left
4633.234375,63617,1,1759.0,1765.0,1637.0,1863.0,1753.0,1755.0,1763.0,1749.0,79.23126220703125,-38.94020080566406,-39.31749725341797,Left
4635.234375,63617,1,1758.0,1761.0,1695.0,1562.0,1743.0,1755.0,1759.0,1747.0,79.23126220703125,-38.94020080566406,-39.31749725341797,Left
4637.23486328125,63618,1,1749.0,1753.0,1654.0,1407.0,1743.0,1741.0,1763.0,1754.0,79.23126220703125,-38.94020080566406,-39.31749725341797,Left
4639.23486328125,63618,1,1768.0,1765.0,1787.0,1563.0,1751.0,1747.0,1763.0,1748.0,79.23126220703125,-38.94020080566406,-39.31749725341797,Left
4641.23486328125,63618,1,1752.0,1767.0,1763.0,1845.0,1757.0,1747.0,1759.0,1746.0,79.23126220703125,-38.94020080566406,-39.31749725341797,Left
4643.23486328125,63618,1,1753.0,1763.0,1805.0,2147.0,1749.0,1752.0,1759.0,1746.0,79.23126220703125,-38.94020080566406,-39.31749725341797,Left
4645.23486328125,63618,1,1752.0,1759.0,1812.0,2130.0,1748.0,1755.0,1763.0,1747.0,79.23126220703125,-38.94020080566406,-39.31749725341797,Left
4700.234375,63619,1,1758.0,1763.0,1836.0,2078.0,1740.0,1757.0,1757.0,1749.0,79.23126220703125,-38.94020080566406,-39.31749725341797,Left
4702.234375,63619,1,1755.0,1758.0,1789.0,1988.0,1752.0,1751.0,1758.0,1753.0,79.23126220703125,-38.94020080566406,-39.31749725341797,Left
4704.234375,63619,1,1763.0,1763.0,1497.0,1773.0,1754.0,1753.0,1755.0,1752.0,79.23126220703125,-38.94020080566406,-39.31749725341797,Left
4706.234375,63619,1,1761.0,1758.0,1557.0,1693.0,1753.0,1748.0,1758.0,1751.0,79.23126220703125,-38.94020080566406,-39.31749725341797,Left
4708.234375,63619,1,1763.0,1759.0,1619.0,1385.0,1746.0,1718.0,1761.0,1742.0,79.23126220703125,-38.94020080566406,-39.31749725341797,Left
4701.23583984375,63620,1,1756.0,1763.0,1656.0,1341.0,1751.0,1756.0,1762.0,1751.0,79.23126220703125,-38.94020080566406,-39.31749725341797,Left
4703.23583984375,63620,1,1757.0,1757.0,1582.0,1544.0,1750.0,1757.0,1761.0,1743.0,79.23126220703125,-38.94020080566406,-39.31749725341797,Left
4705.23583984375,63620,1,1757.0,1755.0,1625.0,1885.0,1747.0,1755.0,1755.0,1747.0,79.23126220703125,-38.94020080566406,-39.31749725341797,Left
4707.23583984375,63620,1,1758.0,1759.0,1741.0,1903.0,1751.0,1763.0,1759.0,1752.0,79.23126220703125,-38.94020080566406,-39.31749725341797,Left
4709.23583984375,63620,1,1758.0,1763.0,1672.0,2133.0,1753.0,1749.0,1759.0,1761.0,79.23126220703125,-38.94020080566406,-39.31749725341797,Left
4701.23583984375,63621,1,1759.0,1766.0,1701.0,2031.0,1753.0,1741.0,1762.0,1753.0,79.23126220703125,-38.94020080566406,-39.31749725341797,Left
4703.23583984375,63621,1,1758.0,1759.0,1641.0,2042.0,1747.0,1751.0,1759.0,1746.0,79.23126220703125,-38.94020080566406,-39.31749725341797,Left
4705.23583984375,63621,1,1755.0,1763.0,1896.0,1769.0,1756.0,1753.0,1763.0,1746.0,79.23126220703125,-38.94020080566406,-39.31749725341797,Left
4707.23583984375,63621,1,1753.0,1764.0,1935.0,1607.0,1749.0,1749.0,1763.0,1749.0,79.23126220703125,-38.94020080566406,-39.31749725341797,Left
4709.23583984375,63621,1,1763.0,1759.0,1747.0,1237.0,1753.0,1755.0,1759.0,1738.0,79.23126220703125,-38.94020080566406,-39.31749725341797,Left
4701.23583984375,63622,1,1763.0,1755.0,1737.0,1369.0,1749.0,1755.0,1759.0,1745.0,79.17863464355469,-38.95195007324219,-39.157630920410156,Left
4703.23583984375,63622,1,1759.0,1764.0,1823.0,1334.0,1755.0,1756.0,1763.0,1753.0,79.17863464355469,-38.95195007324219,-39.157630920410156,Left
4705.23583984375,63622,1,1765.0,1765.0,1733.0,1727.0,1753.0,1750.0,1759.0,1753.0,79.17863464355469,-38.95195007324219,-39.157630920410156,Left
4707.23583984375,63622,1,1764.0,1765.0,1943.0,1949.0,1752.0,1741.0,1763.0,1748.0,79.17863464355469,-38.95195007324219,-39.157630920410156,Left
4709.23583984375,63622,1,1759.0,1764.0,1871.0,1973.0,1756.0,1740.0,1763.0,1753.0,79.17863464355469,-38.95195007324219,-39.157630920410156,Left
4702.240234375,63623,1,1763.0,1765.0,2010.0,1837.0,1752.0,1753.0,1759.0,1753.0,79.17863464355469,-38.95195007324219,-39.157630920410156,Left
4704.240234375,63623,1,1753.0,1759.0,1883.0,1779.0,1752.0,1747.0,1763.0,1747.0,79.17863464355469,-38.95195007324219,-39.157630920410156,Left
4706.240234375,63623,1,1759.0,1762.0,1864.0,1555.0,1747.0,1751.0,1759.0,1743.0,79.17863464355469,-38.95195007324219,-39.157630920410156,Left
4708.240234375,63623,1,1753.0,1757.0,1880.0,1581.0,1747.0,1743.0,1759.0,1749.0,79.17863464355469,-38.95195007324219,-39.157630920410156,Left
4710.240234375,63623,1,1759.0,1757.0,1715.0,1363.0,1751.0,1753.0,1762.0,1751.0,79.17863464355469,-38.95195007324219,-39.157630920410156,Left
4702.240234375,63624,1,1754.0,1749.0,1573.0,1386.0,1749.0,1751.0,1763.0,1738.0,79.17863464355469,-38.95195007324219,-39.157630920410156,Left
4704.240234375,63624,1,1757.0,1757.0,1596.0,1495.0,1749.0,1753.0,1759.0,1741.0,79.17863464355469,-38.95195007324219,-39.157630920410156,Left
4706.240234375,63624,1,1763.0,1753.0,1637.0,1889.0,1748.0,1755.0,1759.0,1747.0,79.17863464355469,-38.95195007324219,-39.157630920410156,Left
4708.240234375,63624,1,1758.0,1757.0,1695.0,2055.0,1747.0,1752.0,1762.0,1751.0,79.17863464355469,-38.95195007324219,-39.157630920410156,Left
4710.240234375,63624,1,1765.0,1761.0,1780.0,2184.0,1755.0,1751.0,1758.0,1745.0,79.17863464355469,-38.95195007324219,-39.157630920410156,Left
4707.271484375,63625,1,1759.0,1767.0,1717.0,1907.0,1755.0,1748.0,1763.0,1755.0,79.17863464355469,-38.95195007324219,-39.157630920410156,Left
4709.271484375,63625,1,1757.0,1765.0,1641.0,1847.0,1757.0,1756.0,1763.0,1758.0,79.17863464355469,-38.95195007324219,-39.157630920410156,Left
4711.271484375,63625,1,1770.0,1763.0,1594.0,1785.0,1764.0,1755.0,1763.0,1757.0,79.17863464355469,-38.95195007324219,-39.157630920410156,Left
4713.271484375,63625,1,1755.0,1771.0,1617.0,1771.0,1751.0,1740.0,1759.0,1743.0,79.17863464355469,-38.95195007324219,-39.157630920410156,Left
4715.271484375,63625,1,1764.0,1759.0,1687.0,1435.0,1751.0,1743.0,1757.0,1749.0,79.17863464355469,-38.95195007324219,-39.157630920410156,Left
4717.2431640625,63626,1,1751.0,1757.0,1676.0,1311.0,1749.0,1751.0,1762.0,1739.0,79.17863464355469,-38.95195007324219,-39.157630920410156,Left
4719.2431640625,63626,1,1749.0,1753.0,1605.0,1399.0,1741.0,1752.0,1763.0,1741.0,79.17863464355469,-38.95195007324219,-39.157630920410156,Left
4721.2431640625,63626,1,1747.0,1755.0,1783.0,1979.0,1748.0,1742.0,1763.0,1750.0,79.17863464355469,-38.95195007324219,-39.157630920410156,Left
4723.2431640625,63626,1,1762.0,1758.0,1735.0,2166.0,1753.0,1755.0,1759.0,1754.0,79.17863464355469,-38.95195007324219,-39.157630920410156,Left
4725.2431640625,63626,1,1765.0,1763.0,1797.0,2299.0,1753.0,1757.0,1763.0,1753.0,79.17863464355469,-38.95195007324219,-39.157630920410156,Left
4729.234375,63627,1,1755.0,1765.0,1784.0,2237.0,1751.0,1754.0,1759.0,1743.0,79.17863464355469,-38.95195007324219,-39.157630920410156,Left
4731.234375,63627,1,1754.0,1763.0,1755.0,2124.0,1749.0,1757.0,1759.0,1745.0,79.17863464355469,-38.95195007324219,-39.157630920410156,Left
4733.234375,63627,1,1755.0,1759.0,1870.0,1880.0,1753.0,1755.0,1761.0,1743.0,79.17863464355469,-38.95195007324219,-39.157630920410156,Left
4735.234375,63627,1,1756.0,1767.0,2040.0,1647.0,1753.0,1739.0,1763.0,1749.0,79.17863464355469,-38.95195007324219,-39.157630920410156,Left
4737.234375,63627,1,1755.0,1765.0,2093.0,1397.0,1750.0,1756.0,1763.0,1755.0,79.17863464355469,-38.95195007324219,-39.157630920410156,Left
4740.234375,63628,1,1767.0,1765.0,2068.0,1435.0,1757.0,1753.0,1757.0,1752.0,79.17863464355469,-38.95195007324219,-39.157630920410156,Left
4742.234375,63628,1,1763.0,1767.0,2056.0,1581.0,1755.0,1752.0,1758.0,1750.0,79.17863464355469,-38.95195007324219,-39.157630920410156,Left
4744.234375,63628,1,1763.0,1759.0,2027.0,1844.0,1750.0,1747.0,1759.0,1749.0,79.29385375976562,-39.08572006225586,-38.979923248291016,Left
4746.234375,63628,1,1756.0,1754.0,1976.0,1951.0,1749.0,1741.0,1757.0,1751.0,79.29385375976562,-39.08572006225586,-38.979923248291016,Left
4748.234375,63628,1,1752.0,1747.0,2019.0,2070.0,1749.0,1751.0,1762.0,1743.0,79.29385375976562,-39.08572006225586,-38.979923248291016,Left
4749.2490234375,63629,1,1749.0,1752.0,1861.0,2029.0,1745.0,1749.0,1763.0,1737.0,79.29385375976562,-39.08572006225586,-38.979923248291016,Left
4751.2490234375,63629,1,1761.0,1763.0,1752.0,1845.0,1755.0,1753.0,1763.0,1753.0,79.29385375976562,-39.08572006225586,-38.979923248291016,Left
4753.2490234375,63629,1,1755.0,1763.0,1575.0,1735.0,1756.0,1758.0,1759.0,1747.0,79.29385375976562,-39.08572006225586,-38.979923248291016,Left
4755.2490234375,63629,1,1755.0,1757.0,1497.0,1542.0,1749.0,1762.0,1763.0,1747.0,79.29385375976562,-39.08572006225586,-38.979923248291016,Left
4757.2490234375,63629,1,1755.0,1765.0,1648.0,1193.0,1753.0,1749.0,1763.0,1747.0,79.29385375976562,-39.08572006225586,-38.979923248291016,Left
4756.234375,63630,1,1769.0,1763.0,1852.0,1125.0,1759.0,1755.0,1749.0,1753.0,79.29385375976562,-39.08572006225586,-38.979923248291016,Left
4758.234375,63630,1,1763.0,1762.0,1755.0,1365.0,1751.0,1749.0,1759.0,1747.0,79.29385375976562,-39.08572006225586,-38.979923248291016,Left
4760.234375,63630,1,1765.0,1759.0,1949.0,1913.0,1757.0,1739.0,1762.0,1743.0,79.29385375976562,-39.08572006225586,-38.979923248291016,Left
4762.234375,63630,1,1754.0,1757.0,1799.0,2067.0,1753.0,1752.0,1764.0,1751.0,79.29385375976562,-39.08572006225586,-38.979923248291016,Left
4764.234375,63630,1,1763.0,1763.0,1710.0,2040.0,1775.0,1753.0,1759.0,1747.0,79.29385375976562,-39.08572006225586,-38.979923248291016,Left
4789.23486328125,63631,1,1757.0,1764.0,1640.0,2019.0,1749.0,1756.0,1759.0,1747.0,79.29385375976562,-39.08572006225586,-38.979923248291016,Left
4791.23486328125,63631,1,1757.0,1762.0,1709.0,1990.0,1747.0,1751.0,1763.0,1752.0,79.29385375976562,-39.08572006225586,-38.979923248291016,Left
4793.23486328125,63631,1,1758.0,1762.0,1669.0,1771.0,1753.0,1752.0,1759.0,1750.0,79.29385375976562,-39.08572006225586,-38.979923248291016,Left
4795.23486328125,63631,1,1763.0,1763.0,1657.0,1735.0,1753.0,1747.0,1757.0,1754.0,79.29385375976562,-39.08572006225586,-38.979923248291016,Left
4797.23486328125,63631,1,1761.0,1759.0,1613.0,1443.0,1749.0,1743.0,1757.0,1741.0,79.29385375976562,-39.08572006225586,-38.979923248291016,Left
4790.24169921875,63632,1,1759.0,1766.0,1643.0,1524.0,1752.0,1773.0,1761.0,1752.0,79.29385375976562,-39.08572006225586,-38.979923248291016,Left
4792.24169921875,63632,1,1758.0,1755.0,1476.0,1685.0,1749.0,1726.0,1761.0,1741.0,79.29385375976562,-39.08572006225586,-38.979923248291016,Left
4794.24169921875,63632,1,1759.0,1753.0,1629.0,1908.0,1752.0,1747.0,1761.0,1759.0,79.29385375976562,-39.08572006225586,-38.979923248291016,Left
4796.24169921875,63632,1,1759.0,1765.0,1594.0,1949.0,1751.0,1749.0,1755.0,1750.0,79.29385375976562,-39.08572006225586,-38.979923248291016,Left
4798.24169921875,63632,1,1749.0,1765.0,1688.0,2015.0,1751.0,1743.0,1758.0,1749.0,79.29385375976562,-39.08572006225586,-38.979923248291016,Left
4790.24169921875,63633,1,1764.0,1759.0,1628.0,1833.0,1755.0,1744.0,1759.0,1752.0,79.29385375976562,-39.08572006225586,-38.979923248291016,Left
4792.24169921875,63633,1,1754.0,1762.0,1622.0,1711.0,1749.0,1754.0,1763.0,1747.0,79.29385375976562,-39.08572006225586,-38.979923248291016,Left
4794.24169921875,63633,1,1757.0,1763.0,1532.0,1623.0,1743.0,1749.0,1763.0,1753.0,79.29385375976562,-39.08572006225586,-38.979923248291016,Left
4796.24169921875,63633,1,1755.0,1756.0,1669.0,1565.0,1749.0,1757.0,1762.0,1749.0,79.29385375976562,-39.08572006225586,-38.979923248291016,Left
4798.24169921875,63633,1,1759.0,1758.0,1839.0,1336.0,1741.0,1749.0,1758.0,1742.0,79.29385375976562,-39.08572006225586,-38.979923248291016,Left
4806.23388671875,63634,1,1753.0,1759.0,1803.0,1514.0,1747.0,1751.0,1763.0,1739.0,79.29385375976562,-39.08572006225586,-38.979923248291016,Left
4808.23388671875,63634,1,1759.0,1763.0,1634.0,1743.0,1752.0,1752.0,1757.0,1753.0,79.29385375976562,-39.08572006225586,-38.979923248291016,Left
4810.23388671875,63634,1,1767.0,1767.0,1765.0,2041.0,1756.0,1753.0,1762.0,1747.0,79.29385375976562,-39.08572006225586,-38.979923248291016,Left
4812.23388671875,63634,1,1755.0,1755.0,1863.0,2117.0,1753.0,1747.0,1757.0,1747.0,79.29385375976562,-39.08572006225586,-38.979923248291016,Left
4814.23388671875,63634,1,1758.0,1759.0,1833.0,2171.0,1756.0,1743.0,1761.0,1763.0,79.29385375976562,-39.08572006225586,-38.979923248291016,Left
4807.24169921875,63635,1,1761.0,1769.0,1749.0,1995.0,1747.0,1753.0,1763.0,1747.0,79.1606216430664,-39.16941452026367,-38.955352783203125,Left
4809.24169921875,63635,1,1753.0,1764.0,1773.0,1863.0,1751.0,1747.0,1757.0,1747.0,79.1606216430664,-39.16941452026367,-38.955352783203125,Left
4811.24169921875,63635,1,1755.0,1757.0,1919.0,1633.0,1749.0,1753.0,1763.0,1753.0,79.1606216430664,-39.16941452026367,-38.955352783203125,Left
4813.24169921875,63635,1,1755.0,1767.0,1790.0,1459.0,1755.0,1755.0,1757.0,1755.0,79.1606216430664,-39.16941452026367,-38.955352783203125,Left
4815.24169921875,63635,1,1752.0,1765.0,1787.0,1205.0,1743.0,1761.0,1759.0,1750.0,79.1606216430664,-39.16941452026367,-38.955352783203125,Left
4820.2412109375,63636,1,1753.0,1755.0,1681.0,1362.0,1747.0,1749.0,1756.0,1739.0,79.1606216430664,-39.16941452026367,-38.955352783203125,Left
4822.2412109375,63636,1,1752.0,1753.0,1717.0,1685.0,1747.0,1747.0,1757.0,1743.0,79.1606216430664,-39.16941452026367,-38.955352783203125,Left
4824.2412109375,63636,1,1758.0,1749.0,1885.0,1949.0,1749.0,1751.0,1758.0,1745.0,79.1606216430664,-39.16941452026367,-38.955352783203125,Left
4826.2412109375,63636,1,1755.0,1751.0,2037.0,2037.0,1746.0,1750.0,1759.0,1748.0,79.1606216430664,-39.16941452026367,-38.955352783203125,Left
4828.2412109375,63636,1,1754.0,1749.0,2005.0,2023.0,1745.0,1747.0,1761.0,1743.0,79.1606216430664,-39.16941452026367,-38.955352783203125,Left
4827.234375,63637,1,1759.0,1765.0,1977.0,2029.0,1751.0,1743.0,1747.0,1735.0,79.1606216430664,-39.16941452026367,-38.955352783203125,Left
4829.234375,63637,1,1756.0,1767.0,2067.0,1945.0,1753.0,1751.0,1763.0,1750.0,79.1606216430664,-39.16941452026367,-38.955352783203125,Left
4831.234375,63637,1,1759.0,1767.0,2133.0,1703.0,1758.0,1751.0,1763.0,1756.0,79.1606216430664,-39.16941452026367,-38.955352783203125,Left
4833.234375,63637,1,1767.0,1765.0,1917.0,1551.0,1758.0,1754.0,1759.0,1757.0,79.1606216430664,-39.16941452026367,-38.955352783203125,Left
4835.234375,63637,1,1769.0,1769.0,1693.0,1443.0,1761.0,1763.0,1763.0,1756.0,79.1606216430664,-39.16941452026367,-38.955352783203125,Left
4837.234375,63638,1,1763.0,1767.0,1784.0,1415.0,1755.0,1759.0,1762.0,1753.0,79.1606216430664,-39.16941452026367,-38.955352783203125,Left
4839.234375,63638,1,1759.0,1759.0,1706.0,1571.0,1753.0,1755.0,1761.0,1745.0,79.1606216430664,-39.16941452026367,-38.955352783203125,Left
4841.234375,63638,1,1753.0,1763.0,1642.0,1915.0,1751.0,1750.0,1759.0,1740.0,79.1606216430664,-39.16941452026367,-38.955352783203125,Left
4843.234375,63638,1,1748.0,1757.0,1646.0,2067.0,1746.0,1752.0,1759.0,1739.0,79.1606216430664,-39.16941452026367,-38.955352783203125,Left
4845.234375,63638,1,1755.0,1759.0,1626.0,2104.0,1751.0,1720.0,1763.0,1747.0,79.1606216430664,-39.16941452026367,-38.955352783203125,Left
4847.2470703125,63639,1,1743.0,1757.0,1560.0,1920.0,1742.0,1751.0,1759.0,1743.0,79.1606216430664,-39.16941452026367,-38.955352783203125,Left
4849.2470703125,63639,1,1763.0,1764.0,1683.0,1799.0,1751.0,1754.0,1758.0,1750.0,79.1606216430664,-39.16941452026367,-38.955352783203125,Left
4851.2470703125,63639,1,1752.0,1765.0,1620.0,1635.0,1751.0,1757.0,1761.0,1751.0,79.1606216430664,-39.16941452026367,-38.955352783203125,Left
4853.2470703125,63639,1,1753.0,1758.0,1591.0,1573.0,1755.0,1746.0,1763.0,1751.0,79.1606216430664,-39.16941452026367,-38.955352783203125,Left
4855.2470703125,63639,1,1769.0,1767.0,1507.0,1324.0,1762.0,1755.0,1762.0,1756.0,79.1606216430664,-39.16941452026367,-38.955352783203125,Left
4858.24169921875,63640,1,1768.0,1765.0,1699.0,1486.0,1755.0,1755.0,1763.0,1757.0,79.1606216430664,-39.16941452026367,-38.955352783203125,Left
4860.24169921875,63640,1,1753.0,1759.0,1702.0,1718.0,1749.0,1755.0,1759.0,1747.0,79.1606216430664,-39.16941452026367,-38.955352783203125,Left
4862.24169921875,63640,1,1755.0,1759.0,1817.0,1916.0,1751.0,1758.0,1763.0,1748.0,79.1606216430664,-39.16941452026367,-38.955352783203125,Left
4864.24169921875,63640,1,1753.0,1763.0,1805.0,2041.0,1751.0,1755.0,1761.0,1747.0,79.1606216430664,-39.16941452026367,-38.955352783203125,Left
4866.24169921875,63640,1,1758.0,1765.0,1746.0,2131.0,1753.0,1755.0,1762.0,1749.0,79.1606216430664,-39.16941452026367,-38.955352783203125,Left
4867.2412109375,63641,1,1757.0,1763.0,1804.0,1903.0,1751.0,1746.0,1753.0,1745.0,79.1606216430664,-39.16941452026367,-38.955352783203125,Left
4869.2412109375,63641,1,1756.0,1765.0,1627.0,1833.0,1747.0,1709.0,1757.0,1749.0,79.1606216430664,-39.16941452026367,-38.955352783203125,Left
4871.2412109375,63641,1,1752.0,1757.0,1624.0,1738.0,1745.0,1755.0,1763.0,1747.0,79.20745849609375,-39.18375778198242,-39.05085372924805,Left
4873.2412109375,63641,1,1762.0,1765.0,1593.0,1679.0,1752.0,1757.0,1759.0,1750.0,79.20745849609375,-39.18375778198242,-39.05085372924805,Left
4875.2412109375,63641,1,1755.0,1757.0,1563.0,1447.0,1748.0,1763.0,1763.0,1752.0,79.20745849609375,-39.18375778198242,-39.05085372924805,Left
4914.27197265625,63642,1,1768.0,1763.0,1648.0,1559.0,1755.0,1765.0,1763.0,1759.0,79.20745849609375,-39.18375778198242,-39.05085372924805,Left
4916.27197265625,63642,1,1763.0,1763.0,1703.0,1611.0,1755.0,1765.0,1759.0,1755.0,79.20745849609375,-39.18375778198242,-39.05085372924805,Left
4918.27197265625,63642,1,1761.0,1764.0,1867.0,1870.0,1755.0,1755.0,1759.0,1752.0,79.20745849609375,-39.18375778198242,-39.05085372924805,Left
4920.27197265625,63642,1,1755.0,1758.0,1943.0,1947.0,1749.0,1742.0,1762.0,1747.0,79.20745849609375,-39.18375778198242,-39.05085372924805,Left
4922.27197265625,63642,1,1755.0,1755.0,2025.0,1973.0,1747.0,1751.0,1763.0,1743.0,79.20745849609375,-39.18375778198242,-39.05085372924805,Left
4914.27197265625,63643,1,1753.0,1761.0,2037.0,1839.0,1752.0,1718.0,1747.0,1751.0,79.20745849609375,-39.18375778198242,-39.05085372924805,Left
4916.27197265625,63643,1,1769.0,1767.0,2187.0,1717.0,1754.0,1756.0,1759.0,1753.0,79.20745849609375,-39.18375778198242,-39.05085372924805,Left
4918.27197265625,63643,1,1757.0,1765.0,1947.0,1682.0,1751.0,1761.0,1762.0,1747.0,79.20745849609375,-39.18375778198242,-39.05085372924805,Left
4920.27197265625,63643,1,1763.0,1759.0,1785.0,1641.0,1749.0,1749.0,1765.0,1747.0,79.20745849609375,-39.18375778198242,-39.05085372924805,Left
4922.27197265625,63643,1,1758.0,1761.0,1679.0,1371.0,1754.0,1739.0,1762.0,1749.0,79.20745849609375,-39.18375778198242,-39.05085372924805,Left
4914.27197265625,63644,1,1747.0,1755.0,1560.0,1401.0,1747.0,1740.0,1757.0,1741.0,79.20745849609375,-39.18375778198242,-39.05085372924805,Left
4916.27197265625,63644,1,1758.0,1759.0,1790.0,1567.0,1733.0,1752.0,1757.0,1753.0,79.20745849609375,-39.18375778198242,-39.05085372924805,Left
4918.27197265625,63644,1,1765.0,1759.0,1935.0,1983.0,1755.0,1757.0,1759.0,1749.0,79.20745849609375,-39.18375778198242,-39.05085372924805,Left
4920.27197265625,63644,1,1756.0,1763.0,1880.0,2023.0,1747.0,1756.0,1759.0,1748.0,79.20745849609375,-39.18375778198242,-39.05085372924805,Left
4922.27197265625,63644,1,1755.0,1759.0,1780.0,2110.0,1752.0,1753.0,1763.0,1749.0,79.20745849609375,-39.18375778198242,-39.05085372924805,Left
4915.271484375,63645,1,1767.0,1758.0,1680.0,2009.0,1755.0,1753.0,1759.0,1753.0,79.20745849609375,-39.18375778198242,-39.05085372924805,Left
