Timestamp_ms,Packet_Number,Trial_ID,Ch1,Ch2,Ch3,Ch4,Ch5,Ch6,Ch7,Ch8,Ch9,Ch10,Ch11,Label
3307.1123046875,126512,1,1751.0,1743.0,1757.0,1596.0,1741.0,1746.0,1759.0,1739.0,30.25929832458496,-31.97966957092285,-34.286537170410156,Left
3309.1123046875,126512,1,1737.0,1751.0,1755.0,1801.0,1725.0,1735.0,1761.0,1723.0,30.25929832458496,-31.97966957092285,-34.286537170410156,Left
3311.1123046875,126512,1,1742.0,1757.0,1761.0,1995.0,1737.0,1739.0,1759.0,1741.0,30.25929832458496,-31.97966957092285,-34.286537170410156,Left
3313.1123046875,126512,1,1751.0,1753.0,1757.0,1973.0,1743.0,1737.0,1763.0,1745.0,30.25929832458496,-31.97966957092285,-34.286537170410156,Left
3315.1123046875,126512,1,1771.0,1762.0,1755.0,2087.0,1753.0,1753.0,1764.0,1754.0,30.25929832458496,-31.97966957092285,-34.286537170410156,Left
3308.14501953125,126513,1,1765.0,1764.0,1755.0,1960.0,1755.0,1753.0,1762.0,1757.0,30.25929832458496,-31.97966957092285,-34.286537170410156,Left
3310.14501953125,126513,1,1763.0,1767.0,1759.0,1871.0,1765.0,1762.0,1755.0,1759.0,30.25929832458496,-31.97966957092285,-34.286537170410156,Left
3312.14501953125,126513,1,1765.0,1767.0,1758.0,1799.0,1757.0,1756.0,1757.0,1757.0,30.25929832458496,-31.97966957092285,-34.286537170410156,Left
3314.14501953125,126513,1,1773.0,1769.0,1755.0,1678.0,1765.0,1767.0,1759.0,1765.0,30.25929832458496,-31.97966957092285,-34.286537170410156,Left
3316.14501953125,126513,1,1769.0,1763.0,1755.0,1543.0,1752.0,1758.0,1757.0,1745.0,30.25929832458496,-31.97966957092285,-34.286537170410156,Left
3308.14501953125,126514,1,1749.0,1755.0,1756.0,1468.0,1749.0,1740.0,1763.0,1741.0,30.25929832458496,-31.97966957092285,-34.286537170410156,Left
3310.14501953125,126514,1,1737.0,1747.0,1757.0,1453.0,1737.0,1734.0,1762.0,1726.0,30.25929832458496,-31.97966957092285,-34.286537170410156,Left
3312.14501953125,126514,1,1739.0,1749.0,1759.0,1563.0,1742.0,1747.0,1762.0,1736.0,30.25929832458496,-31.97966957092285,-34.286537170410156,Left
3314.14501953125,126514,1,1749.0,1752.0,1763.0,1771.0,1742.0,1750.0,1763.0,1741.0,30.25929832458496,-31.97966957092285,-34.286537170410156,Left
3316.14501953125,126514,1,1763.0,1761.0,1757.0,1957.0,1753.0,1752.0,1759.0,1753.0,30.25929832458496,-31.97966957092285,-34.286537170410156,Left
3308.14501953125,126515,1,1764.0,1765.0,1755.0,1897.0,1755.0,1757.0,1761.0,1757.0,30.25929832458496,-31.97966957092285,-34.286537170410156,Left
3310.14501953125,126515,1,1767.0,1767.0,1755.0,1792.0,1752.0,1757.0,1758.0,1759.0,30.25929832458496,-31.97966957092285,-34.286537170410156,Left
3312.14501953125,126515,1,1769.0,1771.0,1757.0,1797.0,1753.0,1757.0,1761.0,1755.0,30.25929832458496,-31.97966957092285,-34.286537170410156,Left
3314.14501953125,126515,1,1773.0,1775.0,1759.0,1638.0,1763.0,1763.0,1762.0,1767.0,30.25929832458496,-31.97966957092285,-34.286537170410156,Left
3316.14501953125,126515,1,1769.0,1770.0,1757.0,1480.0,1752.0,1757.0,1757.0,1749.0,30.25929832458496,-31.97966957092285,-34.286537170410156,Left
3318.118408203125,126516,1,1765.0,1758.0,1753.0,1555.0,1745.0,1748.0,1755.0,1741.0,30.25929832458496,-31.97966957092285,-34.286537170410156,Left
3320.118408203125,126516,1,1742.0,1747.0,1755.0,1609.0,1739.0,1727.0,1762.0,1722.0,30.25929832458496,-31.97966957092285,-34.286537170410156,Left
3322.118408203125,126516,1,1747.0,1749.0,1759.0,1752.0,1737.0,1740.0,1757.0,1741.0,30.25929832458496,-31.97966957092285,-34.286537170410156,Left
3324.118408203125,126516,1,1751.0,1756.0,1757.0,1929.0,1742.0,1737.0,1763.0,1740.0,30.25929832458496,-31.97966957092285,-34.286537170410156,Left
3326.118408203125,126516,1,1756.0,1757.0,1757.0,1897.0,1752.0,1756.0,1763.0,1758.0,30.25929832458496,-31.97966957092285,-34.286537170410156,Left
3327.114501953125,126517,1,1767.0,1769.0,1751.0,2040.0,1752.0,1753.0,1757.0,1751.0,30.25929832458496,-31.97966957092285,-34.286537170410156,Left
3329.114501953125,126517,1,1769.0,1766.0,1756.0,1901.0,1762.0,1751.0,1781.0,1755.0,30.25929832458496,-31.97966957092285,-34.286537170410156,Left
3331.114501953125,126517,1,1768.0,1769.0,1757.0,1741.0,1757.0,1756.0,1763.0,1753.0,30.25929832458496,-31.97966957092285,-34.286537170410156,Left
3333.114501953125,126517,1,1774.0,1753.0,1757.0,1675.0,1759.0,1765.0,1759.0,1764.0,30.25929832458496,-31.97966957092285,-34.286537170410156,Left
3335.114501953125,126517,1,1767.0,1769.0,1758.0,1529.0,1754.0,1755.0,1762.0,1747.0,30.256481170654297,-31.973617553710938,-34.2839241027832,Left
3335.676513671875,126518,1,1752.0,1754.0,1756.0,1557.0,1747.0,1747.0,1759.0,1739.0,30.256481170654297,-31.973617553710938,-34.2839241027832,Left
3337.676513671875,126518,1,1747.0,1751.0,1757.0,1637.0,1747.0,1727.0,1757.0,1724.0,30.256481170654297,-31.973617553710938,-34.2839241027832,Left
3339.676513671875,126518,1,1748.0,1752.0,1757.0,1993.0,1739.0,1737.0,1758.0,1741.0,30.256481170654297,-31.973617553710938,-34.2839241027832,Left
3341.676513671875,126518,1,1752.0,1756.0,1752.0,1957.0,1741.0,1742.0,1763.0,1742.0,30.256481170654297,-31.973617553710938,-34.2839241027832,Left
3343.676513671875,126518,1,1757.0,1763.0,1758.0,1964.0,1755.0,1757.0,1759.0,1753.0,30.256481170654297,-31.973617553710938,-34.2839241027832,Left
3349.41650390625,126519,1,1767.0,1763.0,1753.0,2107.0,1757.0,1753.0,1763.0,1755.0,30.256481170654297,-31.973617553710938,-34.2839241027832,Left
3351.41650390625,126519,1,1764.0,1768.0,1755.0,1917.0,1755.0,1754.0,1757.0,1757.0,30.256481170654297,-31.973617553710938,-34.2839241027832,Left
3353.41650390625,126519,1,1766.0,1775.0,1757.0,1871.0,1757.0,1756.0,1758.0,1756.0,30.256481170654297,-31.973617553710938,-34.2839241027832,Left
3355.41650390625,126519,1,1772.0,1764.0,1754.0,1809.0,1763.0,1767.0,1757.0,1769.0,30.256481170654297,-31.973617553710938,-34.2839241027832,Left
3357.41650390625,126519,1,1767.0,1763.0,1756.0,1643.0,1755.0,1753.0,1764.0,1748.0,30.256481170654297,-31.973617553710938,-34.2839241027832,Left
3364.6123046875,126520,1,1753.0,1764.0,1751.0,1505.0,1745.0,1741.0,1759.0,1727.0,30.256481170654297,-31.973617553710938,-34.2839241027832,Left
3366.6123046875,126520,1,1733.0,1737.0,1755.0,1587.0,1735.0,1734.0,1758.0,1721.0,30.256481170654297,-31.973617553710938,-34.2839241027832,Left
3368.6123046875,126520,1,1740.0,1751.0,1757.0,1591.0,1739.0,1736.0,1762.0,1737.0,30.256481170654297,-31.973617553710938,-34.2839241027832,Left
3370.6123046875,126520,1,1747.0,1756.0,1759.0,1710.0,1741.0,1740.0,1755.0,1737.0,30.256481170654297,-31.973617553710938,-34.2839241027832,Left
3372.6123046875,126520,1,1763.0,1770.0,1755.0,1833.0,1755.0,1753.0,1759.0,1758.0,30.256481170654297,-31.973617553710938,-34.2839241027832,Left
3366.401611328125,126521,1,1764.0,1763.0,1749.0,1895.0,1755.0,1753.0,1765.0,1751.0,30.256481170654297,-31.973617553710938,-34.2839241027832,Left
3368.401611328125,126521,1,1772.0,1765.0,1757.0,1696.0,1764.0,1756.0,1759.0,1756.0,30.256481170654297,-31.973617553710938,-34.2839241027832,Left
3370.401611328125,126521,1,1769.0,1767.0,1753.0,1694.0,1754.0,1756.0,1763.0,1753.0,30.256481170654297,-31.973617553710938,-34.2839241027832,Left
3372.401611328125,126521,1,1768.0,1769.0,1746.0,1553.0,1763.0,1767.0,1759.0,1764.0,30.256481170654297,-31.973617553710938,-34.2839241027832,Left
3374.401611328125,126521,1,1765.0,1767.0,1752.0,1383.0,1751.0,1756.0,1758.0,1751.0,30.256481170654297,-31.973617553710938,-34.2839241027832,Left
3378.011474609375,126522,1,1753.0,1755.0,1752.0,1595.0,1749.0,1745.0,1759.0,1740.0,30.256481170654297,-31.973617553710938,-34.2839241027832,Left
3380.011474609375,126522,1,1741.0,1751.0,1759.0,1719.0,1733.0,1727.0,1758.0,1721.0,30.256481170654297,-31.973617553710938,-34.2839241027832,Left
3382.011474609375,126522,1,1745.0,1749.0,1755.0,1963.0,1739.0,1738.0,1763.0,1739.0,30.256481170654297,-31.973617553710938,-34.2839241027832,Left
3384.011474609375,126522,1,1749.0,1753.0,1753.0,1941.0,1747.0,1737.0,1763.0,1737.0,30.256481170654297,-31.973617553710938,-34.2839241027832,Left
3386.011474609375,126522,1,1769.0,1758.0,1756.0,2041.0,1753.0,1753.0,1759.0,1756.0,30.256481170654297,-31.973617553710938,-34.2839241027832,Left
3391.249267578125,126523,1,1763.0,1762.0,1751.0,1756.0,1759.0,1751.0,1753.0,1748.0,30.256481170654297,-31.973617553710938,-34.2839241027832,Left
3393.249267578125,126523,1,1771.0,1769.0,1756.0,1586.0,1759.0,1755.0,1758.0,1757.0,30.256481170654297,-31.973617553710938,-34.2839241027832,Left
3395.249267578125,126523,1,1771.0,1769.0,1755.0,1532.0,1757.0,1756.0,1763.0,1756.0,30.256481170654297,-31.973617553710938,-34.2839241027832,Left
3397.249267578125,126523,1,1771.0,1767.0,1755.0,1515.0,1767.0,1765.0,1758.0,1765.0,30.256481170654297,-31.973617553710938,-34.2839241027832,Left
3399.249267578125,126523,1,1769.0,1766.0,1755.0,1447.0,1753.0,1753.0,1759.0,1749.0,30.256481170654297,-31.973617553710938,-34.2839241027832,Left
3428.95068359375,126524,1,1755.0,1752.0,1755.0,1693.0,1746.0,1739.0,1755.0,1737.0,30.256481170654297,-31.973617553710938,-34.2839241027832,Left
3430.95068359375,126524,1,1735.0,1747.0,1757.0,1891.0,1739.0,1733.0,1758.0,1727.0,30.256481170654297,-31.973617553710938,-34.2839241027832,Left
3432.95068359375,126524,1,1737.0,1751.0,1759.0,2040.0,1739.0,1745.0,1764.0,1739.0,30.251033782958984,-31.966299057006836,-34.278472900390625,Left
3434.95068359375,126524,1,1747.0,1751.0,1757.0,2007.0,1742.0,1742.0,1758.0,1740.0,30.251033782958984,-31.966299057006836,-34.278472900390625,Left
3436.95068359375,126524,1,1756.0,1765.0,1757.0,1897.0,1753.0,1752.0,1763.0,1751.0,30.251033782958984,-31.966299057006836,-34.278472900390625,Left
3430.14501953125,126525,1,1765.0,1763.0,1752.0,1852.0,1759.0,1757.0,1757.0,1753.0,30.251033782958984,-31.966299057006836,-34.278472900390625,Left
3432.14501953125,126525,1,1765.0,1767.0,1751.0,1781.0,1755.0,1763.0,1757.0,1761.0,30.251033782958984,-31.966299057006836,-34.278472900390625,Left
3434.14501953125,126525,1,1759.0,1770.0,1755.0,1652.0,1755.0,1756.0,1759.0,1754.0,30.251033782958984,-31.966299057006836,-34.278472900390625,Left
3436.14501953125,126525,1,1774.0,1770.0,1755.0,1644.0,1767.0,1767.0,1763.0,1765.0,30.251033782958984,-31.966299057006836,-34.278472900390625,Left
3438.14501953125,126525,1,1769.0,1769.0,1754.0,1555.0,1754.0,1756.0,1763.0,1749.0,30.251033782958984,-31.966299057006836,-34.278472900390625,Left
3430.14501953125,126526,1,1754.0,1753.0,1755.0,1562.0,1747.0,1748.0,1764.0,1727.0,30.251033782958984,-31.966299057006836,-34.278472900390625,Left
3432.14501953125,126526,1,1737.0,1751.0,1756.0,1789.0,1741.0,1734.0,1757.0,1727.0,30.251033782958984,-31.966299057006836,-34.278472900390625,Left
3434.14501953125,126526,1,1742.0,1749.0,1758.0,1895.0,1738.0,1739.0,1763.0,1737.0,30.251033782958984,-31.966299057006836,-34.278472900390625,Left
3436.14501953125,126526,1,1754.0,1751.0,1757.0,1837.0,1741.0,1743.0,1763.0,1741.0,30.251033782958984,-31.966299057006836,-34.278472900390625,Left
3438.14501953125,126526,1,1767.0,1759.0,1759.0,1911.0,1752.0,1753.0,1762.0,1753.0,30.251033782958984,-31.966299057006836,-34.278472900390625,Left
3431.6123046875,126527,1,1764.0,1762.0,1752.0,1907.0,1755.0,1755.0,1758.0,1754.0,30.251033782958984,-31.966299057006836,-34.278472900390625,Left
3433.6123046875,126527,1,1771.0,1767.0,1757.0,1880.0,1755.0,1757.0,1759.0,1756.0,30.251033782958984,-31.966299057006836,-34.278472900390625,Left
3435.6123046875,126527,1,1762.0,1769.0,1756.0,1715.0,1758.0,1763.0,1763.0,1757.0,30.251033782958984,-31.966299057006836,-34.278472900390625,Left
3437.6123046875,126527,1,1771.0,1770.0,1755.0,1557.0,1765.0,1765.0,1757.0,1765.0,30.251033782958984,-31.966299057006836,-34.278472900390625,Left
3439.6123046875,126527,1,1767.0,1767.0,1751.0,1319.0,1751.0,1759.0,1763.0,1748.0,30.251033782958984,-31.966299057006836,-34.278472900390625,Left
3436.635009765625,126528,1,1750.0,1757.0,1754.0,1353.0,1747.0,1745.0,1761.0,1735.0,30.251033782958984,-31.966299057006836,-34.278472900390625,Left
3438.635009765625,126528,1,1738.0,1751.0,1757.0,1591.0,1737.0,1727.0,1759.0,1720.0,30.251033782958984,-31.966299057006836,-34.278472900390625,Left
3440.635009765625,126528,1,1743.0,1749.0,1759.0,1940.0,1738.0,1736.0,1759.0,1733.0,30.251033782958984,-31.966299057006836,-34.278472900390625,Left
3442.635009765625,126528,1,1749.0,1756.0,1757.0,1918.0,1739.0,1737.0,1759.0,1743.0,30.251033782958984,-31.966299057006836,-34.278472900390625,Left
3444.635009765625,126528,1,1766.0,1763.0,1757.0,1970.0,1755.0,1757.0,1762.0,1753.0,30.251033782958984,-31.966299057006836,-34.278472900390625,Left
3448.238037109375,126529,1,1767.0,1754.0,1755.0,1807.0,1754.0,1756.0,1763.0,1758.0,30.251033782958984,-31.966299057006836,-34.278472900390625,Left
3450.238037109375,126529,1,1763.0,1763.0,1756.0,1869.0,1765.0,1764.0,1763.0,1759.0,30.251033782958984,-31.966299057006836,-34.278472900390625,Left
3452.238037109375,126529,1,1768.0,1768.0,1755.0,1746.0,1755.0,1764.0,1761.0,1755.0,30.251033782958984,-31.966299057006836,-34.278472900390625,Left
3454.238037109375,126529,1,1775.0,1783.0,1757.0,1743.0,1765.0,1784.0,1756.0,1767.0,30.251033782958984,-31.966299057006836,-34.278472900390625,Left
3456.238037109375,126529,1,1768.0,1765.0,1756.0,1587.0,1755.0,1763.0,1759.0,1747.0,30.251033782958984,-31.966299057006836,-34.278472900390625,Left
3462.40869140625,126530,1,1749.0,1753.0,1755.0,1659.0,1747.0,1747.0,1757.0,1739.0,30.251033782958984,-31.966299057006836,-34.278472900390625,Left
3464.40869140625,126530,1,1735.0,1747.0,1757.0,1976.0,1727.0,1719.0,1756.0,1723.0,30.251033782958984,-31.966299057006836,-34.278472900390625,Left
3466.40869140625,126530,1,1749.0,1747.0,1758.0,1997.0,1739.0,1740.0,1758.0,1735.0,30.251033782958984,-31.966299057006836,-34.278472900390625,Left
3468.40869140625,126530,1,1751.0,1749.0,1759.0,2001.0,1740.0,1747.0,1756.0,1747.0,30.251033782958984,-31.966299057006836,-34.278472900390625,Left
3470.40869140625,126530,1,1758.0,1763.0,1757.0,1943.0,1758.0,1756.0,1757.0,1759.0,30.255136489868164,-31.977617263793945,-34.29933166503906,Left
3467.40869140625,126531,1,1765.0,1759.0,1757.0,1800.0,1757.0,1755.0,1761.0,1757.0,30.255136489868164,-31.977617263793945,-34.29933166503906,Left
3469.40869140625,126531,1,1769.0,1765.0,1755.0,1671.0,1749.0,1762.0,1763.0,1757.0,30.255136489868164,-31.977617263793945,-34.29933166503906,Left
3471.40869140625,126531,1,1763.0,1783.0,1755.0,1564.0,1754.0,1759.0,1759.0,1755.0,30.255136489868164,-31.977617263793945,-34.29933166503906,Left
3473.40869140625,126531,1,1772.0,1767.0,1756.0,1460.0,1761.0,1767.0,1757.0,1765.0,30.255136489868164,-31.977617263793945,-34.29933166503906,Left
3475.40869140625,126531,1,1761.0,1763.0,1755.0,1434.0,1754.0,1754.0,1762.0,1747.0,30.255136489868164,-31.977617263793945,-34.29933166503906,Left
3479.123046875,126532,1,1750.0,1752.0,1757.0,1531.0,1748.0,1747.0,1761.0,1736.0,30.255136489868164,-31.977617263793945,-34.29933166503906,Left
3481.123046875,126532,1,1751.0,1749.0,1757.0,1624.0,1733.0,1733.0,1764.0,1725.0,30.255136489868164,-31.977617263793945,-34.29933166503906,Left
3483.123046875,126532,1,1743.0,1748.0,1758.0,1705.0,1739.0,1737.0,1761.0,1736.0,30.255136489868164,-31.977617263793945,-34.29933166503906,Left
3485.123046875,126532,1,1757.0,1756.0,1755.0,1819.0,1739.0,1741.0,1755.0,1743.0,30.255136489868164,-31.977617263793945,-34.29933166503906,Left
3487.123046875,126532,1,1757.0,1764.0,1757.0,1711.0,1754.0,1754.0,1761.0,1757.0,30.255136489868164,-31.977617263793945,-34.29933166503906,Left
3490.865478515625,126533,1,1756.0,1762.0,1755.0,1647.0,1762.0,1757.0,1747.0,1747.0,30.255136489868164,-31.977617263793945,-34.29933166503906,Left
3492.865478515625,126533,1,1757.0,1767.0,1757.0,1657.0,1763.0,1757.0,1763.0,1753.0,30.255136489868164,-31.977617263793945,-34.29933166503906,Left
3494.865478515625,126533,1,1766.0,1768.0,1754.0,1609.0,1759.0,1762.0,1759.0,1755.0,30.255136489868164,-31.977617263793945,-34.29933166503906,Left
3496.865478515625,126533,1,1771.0,1768.0,1757.0,1547.0,1767.0,1765.0,1759.0,1766.0,30.255136489868164,-31.977617263793945,-34.29933166503906,Left
3498.865478515625,126533,1,1767.0,1767.0,1755.0,1405.0,1757.0,1754.0,1759.0,1751.0,30.255136489868164,-31.977617263793945,-34.29933166503906,Left
3500.43212890625,126534,1,1757.0,1749.0,1755.0,1565.0,1745.0,1743.0,1763.0,1739.0,30.255136489868164,-31.977617263793945,-34.29933166503906,Left
3502.43212890625,126534,1,1743.0,1747.0,1754.0,1787.0,1727.0,1733.0,1759.0,1723.0,30.255136489868164,-31.977617263793945,-34.29933166503906,Left
3504.43212890625,126534,1,1746.0,1745.0,1757.0,1939.0,1738.0,1743.0,1763.0,1739.0,30.255136489868164,-31.977617263793945,-34.29933166503906,Left
3506.43212890625,126534,1,1751.0,1749.0,1759.0,2164.0,1739.0,1734.0,1763.0,1741.0,30.255136489868164,-31.977617263793945,-34.29933166503906,Left
3508.43212890625,126534,1,1765.0,1759.0,1755.0,2172.0,1751.0,1755.0,1763.0,1753.0,30.255136489868164,-31.977617263793945,-34.29933166503906,Left
3509.4404296875,126535,1,1763.0,1765.0,1751.0,2181.0,1757.0,1759.0,1759.0,1753.0,30.255136489868164,-31.977617263793945,-34.29933166503906,Left
3511.4404296875,126535,1,1767.0,1768.0,1753.0,2063.0,1757.0,1763.0,1763.0,1759.0,30.255136489868164,-31.977617263793945,-34.29933166503906,Left
3513.4404296875,126535,1,1766.0,1767.0,1755.0,1821.0,1757.0,1759.0,1757.0,1759.0,30.255136489868164,-31.977617263793945,-34.29933166503906,Left
3515.4404296875,126535,1,1775.0,1771.0,1753.0,1774.0,1763.0,1763.0,1757.0,1769.0,30.255136489868164,-31.977617263793945,-34.29933166503906,Left
3517.4404296875,126535,1,1767.0,1769.0,1756.0,1553.0,1756.0,1755.0,1763.0,1748.0,30.255136489868164,-31.977617263793945,-34.29933166503906,Left
3543.30078125,126536,1,1747.0,1757.0,1757.0,1611.0,1743.0,1742.0,1758.0,1739.0,30.255136489868164,-31.977617263793945,-34.29933166503906,Left
3545.30078125,126536,1,1735.0,1749.0,1757.0,1719.0,1739.0,1727.0,1758.0,1722.0,30.255136489868164,-31.977617263793945,-34.29933166503906,Left
3547.30078125,126536,1,1739.0,1748.0,1757.0,1930.0,1737.0,1735.0,1763.0,1739.0,30.255136489868164,-31.977617263793945,-34.29933166503906,Left
3549.30078125,126536,1,1749.0,1754.0,1758.0,2053.0,1747.0,1740.0,1759.0,1746.0,30.255136489868164,-31.977617263793945,-34.29933166503906,Left
3551.30078125,126536,1,1758.0,1763.0,1757.0,2287.0,1751.0,1754.0,1763.0,1755.0,30.255136489868164,-31.977617263793945,-34.29933166503906,Left
3544.271728515625,126537,1,1764.0,1757.0,1754.0,2137.0,1752.0,1743.0,1753.0,1749.0,30.255136489868164,-31.977617263793945,-34.29933166503906,Left
3546.271728515625,126537,1,1766.0,1767.0,1753.0,2007.0,1759.0,1755.0,1759.0,1763.0,30.238401412963867,-31.95836639404297,-34.29429626464844,Left
3548.271728515625,126537,1,1775.0,1765.0,1751.0,1879.0,1757.0,1757.0,1757.0,1753.0,30.238401412963867,-31.95836639404297,-34.29429626464844,Left
3550.271728515625,126537,1,1773.0,1769.0,1757.0,1767.0,1769.0,1768.0,1763.0,1764.0,30.238401412963867,-31.95836639404297,-34.29429626464844,Left
3552.271728515625,126537,1,1770.0,1763.0,1755.0,1543.0,1755.0,1754.0,1759.0,1748.0,30.238401412963867,-31.95836639404297,-34.29429626464844,Left
3544.271728515625,126538,1,1748.0,1752.0,1752.0,1661.0,1747.0,1747.0,1763.0,1737.0,30.238401412963867,-31.95836639404297,-34.29429626464844,Left
3546.271728515625,126538,1,1741.0,1745.0,1759.0,1798.0,1740.0,1724.0,1756.0,1717.0,30.238401412963867,-31.95836639404297,-34.29429626464844,Left
3548.271728515625,126538,1,1737.0,1751.0,1761.0,1816.0,1739.0,1736.0,1761.0,1727.0,30.238401412963867,-31.95836639404297,-34.29429626464844,Left
3550.271728515625,126538,1,1755.0,1753.0,1749.0,1661.0,1734.0,1741.0,1762.0,1739.0,30.238401412963867,-31.95836639404297,-34.29429626464844,Left
3552.271728515625,126538,1,1771.0,1759.0,1756.0,1771.0,1753.0,1756.0,1759.0,1752.0,30.238401412963867,-31.95836639404297,-34.29429626464844,Left
3546.283203125,126539,1,1769.0,1757.0,1752.0,1757.0,1755.0,1756.0,1763.0,1755.0,30.238401412963867,-31.95836639404297,-34.29429626464844,Left
3548.283203125,126539,1,1775.0,1763.0,1756.0,1753.0,1757.0,1757.0,1763.0,1763.0,30.238401412963867,-31.95836639404297,-34.29429626464844,Left
3550.283203125,126539,1,1770.0,1768.0,1757.0,1642.0,1763.0,1759.0,1763.0,1758.0,30.238401412963867,-31.95836639404297,-34.29429626464844,Left
3552.283203125,126539,1,1773.0,1773.0,1755.0,1614.0,1766.0,1765.0,1763.0,1763.0,30.238401412963867,-31.95836639404297,-34.29429626464844,Left
3554.283203125,126539,1,1765.0,1761.0,1752.0,1462.0,1752.0,1748.0,1757.0,1749.0,30.238401412963867,-31.95836639404297,-34.29429626464844,Left
3558.756103515625,126540,1,1749.0,1759.0,1755.0,1611.0,1748.0,1746.0,1763.0,1735.0,30.238401412963867,-31.95836639404297,-34.29429626464844,Left
3560.756103515625,126540,1,1740.0,1751.0,1757.0,1654.0,1725.0,1725.0,1763.0,1725.0,30.238401412963867,-31.95836639404297,-34.29429626464844,Left
3562.756103515625,126540,1,1741.0,1758.0,1757.0,1661.0,1741.0,1749.0,1761.0,1739.0,30.238401412963867,-31.95836639404297,-34.29429626464844,Left
3564.756103515625,126540,1,1745.0,1749.0,1757.0,1999.0,1738.0,1724.0,1759.0,1736.0,30.238401412963867,-31.95836639404297,-34.29429626464844,Left
3566.756103515625,126540,1,1768.0,1757.0,1756.0,2093.0,1755.0,1757.0,1758.0,1758.0,30.238401412963867,-31.95836639404297,-34.29429626464844,Left
3568.978271484375,126541,1,1781.0,1755.0,1746.0,1849.0,1755.0,1756.0,1757.0,1749.0,30.238401412963867,-31.95836639404297,-34.29429626464844,Left
3570.978271484375,126541,1,1765.0,1763.0,1759.0,1787.0,1757.0,1773.0,1763.0,1767.0,30.238401412963867,-31.95836639404297,-34.29429626464844,Left
3572.978271484375,126541,1,1763.0,1768.0,1758.0,1626.0,1757.0,1741.0,1759.0,1747.0,30.238401412963867,-31.95836639404297,-34.29429626464844,Left
3574.978271484375,126541,1,1773.0,1769.0,1756.0,1653.0,1759.0,1739.0,1755.0,1749.0,30.238401412963867,-31.95836639404297,-34.29429626464844,Left
3576.978271484375,126541,1,1752.0,1768.0,1755.0,1548.0,1747.0,1734.0,1758.0,1720.0,30.238401412963867,-31.95836639404297,-34.29429626464844,Left
3578.991455078125,126542,1,1745.0,1759.0,1758.0,1618.0,1743.0,1739.0,1759.0,1726.0,30.238401412963867,-31.95836639404297,-34.29429626464844,Left
3580.991455078125,126542,1,1741.0,1742.0,1757.0,1619.0,1733.0,1746.0,1763.0,1758.0,30.238401412963867,-31.95836639404297,-34.29429626464844,Left
3582.991455078125,126542,1,1751.0,1751.0,1763.0,1711.0,1742.0,1741.0,1764.0,1765.0,30.238401412963867,-31.95836639404297,-34.29429626464844,Left
3584.991455078125,126542,1,1765.0,1753.0,1757.0,1919.0,1768.0,1770.0,1763.0,1753.0,30.238401412963867,-31.95836639404297,-34.29429626464844,Left
3586.991455078125,126542,1,1757.0,1762.0,1757.0,2007.0,1751.0,1799.0,1757.0,1765.0,30.238401412963867,-31.95836639404297,-34.29429626464844,Left
3597.077880859375,126543,1,1763.0,1756.0,1759.0,1870.0,1754.0,1765.0,1755.0,1740.0,30.238401412963867,-31.95836639404297,-34.29429626464844,Left
3599.077880859375,126543,1,1757.0,1763.0,1759.0,1709.0,1748.0,1725.0,1757.0,1747.0,30.238401412963867,-31.95836639404297,-34.29429626464844,Left
3601.077880859375,126543,1,1759.0,1763.0,1757.0,1716.0,1757.0,1771.0,1761.0,1759.0,30.238401412963867,-31.95836639404297,-34.29429626464844,Left
3603.077880859375,126543,1,1787.0,1775.0,1757.0,1587.0,1781.0,1789.0,1759.0,1785.0,30.238401412963867,-31.95836639404297,-34.29429626464844,Left
3605.077880859375,126543,1,1772.0,1771.0,1755.0,1579.0,1767.0,1770.0,1756.0,1746.0,30.31202507019043,-31.941389083862305,-34.30049133300781,Left
3599.175537109375,126544,1,1743.0,1756.0,1755.0,1685.0,1747.0,1752.0,1757.0,1721.0,30.31202507019043,-31.941389083862305,-34.30049133300781,Left
3601.175537109375,126544,1,1723.0,1747.0,1758.0,1718.0,1725.0,1709.0,1762.0,1708.0,30.31202507019043,-31.941389083862305,-34.30049133300781,Left
3603.175537109375,126544,1,1727.0,1748.0,1758.0,1889.0,1733.0,1702.0,1759.0,1725.0,30.31202507019043,-31.941389083862305,-34.30049133300781,Left
3605.175537109375,126544,1,1747.0,1757.0,1757.0,1822.0,1733.0,1735.0,1758.0,1736.0,30.31202507019043,-31.941389083862305,-34.30049133300781,Left
3607.175537109375,126544,1,1758.0,1757.0,1757.0,1877.0,1750.0,1811.0,1763.0,1755.0,30.31202507019043,-31.941389083862305,-34.30049133300781,Left
3610.05810546875,126545,1,1769.0,1767.0,1740.0,1843.0,1757.0,1813.0,1757.0,1784.0,30.31202507019043,-31.941389083862305,-34.30049133300781,Left
3612.05810546875,126545,1,1774.0,1769.0,1755.0,1800.0,1763.0,1751.0,1755.0,1757.0,30.31202507019043,-31.941389083862305,-34.30049133300781,Left
3614.05810546875,126545,1,1765.0,1768.0,1759.0,1715.0,1753.0,1685.0,1758.0,1749.0,30.31202507019043,-31.941389083862305,-34.30049133300781,Left
3616.05810546875,126545,1,1763.0,1759.0,1757.0,1739.0,1759.0,1645.0,1762.0,1741.0,30.31202507019043,-31.941389083862305,-34.30049133300781,Left
3618.05810546875,126545,1,1767.0,1749.0,1749.0,1541.0,1752.0,1751.0,1757.0,1737.0,30.31202507019043,-31.941389083862305,-34.30049133300781,Left
3619.191162109375,126546,1,1743.0,1750.0,1763.0,1773.0,1737.0,1751.0,1751.0,1718.0,30.31202507019043,-31.941389083862305,-34.30049133300781,Left
3621.191162109375,126546,1,1747.0,1746.0,1754.0,1879.0,1737.0,1799.0,1758.0,1739.0,30.31202507019043,-31.941389083862305,-34.30049133300781,Left
3623.191162109375,126546,1,1741.0,1751.0,1757.0,1901.0,1743.0,1757.0,1773.0,1724.0,30.31202507019043,-31.941389083862305,-34.30049133300781,Left
3625.191162109375,126546,1,1755.0,1756.0,1757.0,2199.0,1743.0,1767.0,1763.0,1736.0,30.31202507019043,-31.941389083862305,-34.30049133300781,Left
3627.191162109375,126546,1,1753.0,1753.0,1757.0,2073.0,1749.0,1773.0,1763.0,1753.0,30.31202507019043,-31.941389083862305,-34.30049133300781,Left
3626.765625,126547,1,1769.0,1755.0,1753.0,1975.0,1752.0,1719.0,1757.0,1765.0,30.31202507019043,-31.941389083862305,-34.30049133300781,Left
3628.765625,126547,1,1769.0,1757.0,1759.0,1646.0,1756.0,1769.0,1759.0,1787.0,30.31202507019043,-31.941389083862305,-34.30049133300781,Left
3630.765625,126547,1,1763.0,1749.0,1759.0,1604.0,1747.0,1732.0,1758.0,1751.0,30.31202507019043,-31.941389083862305,-34.30049133300781,Left
3632.765625,126547,1,1772.0,1763.0,1758.0,1636.0,1763.0,1750.0,1759.0,1763.0,30.31202507019043,-31.941389083862305,-34.30049133300781,Left
3634.765625,126547,1,1757.0,1763.0,1754.0,1455.0,1753.0,1767.0,1763.0,1739.0,30.31202507019043,-31.941389083862305,-34.30049133300781,Left
3661.056640625,126548,1,1763.0,1757.0,1747.0,1478.0,1753.0,1815.0,1759.0,1765.0,30.31202507019043,-31.941389083862305,-34.30049133300781,Left
3663.056640625,126548,1,1739.0,1743.0,1755.0,1765.0,1735.0,1725.0,1763.0,1738.0,30.31202507019043,-31.941389083862305,-34.30049133300781,Left
3665.056640625,126548,1,1738.0,1739.0,1756.0,1853.0,1737.0,1716.0,1759.0,1741.0,30.31202507019043,-31.941389083862305,-34.30049133300781,Left
3667.056640625,126548,1,1763.0,1753.0,1756.0,1901.0,1748.0,1711.0,1759.0,1740.0,30.31202507019043,-31.941389083862305,-34.30049133300781,Left
3669.056640625,126548,1,1768.0,1763.0,1758.0,1931.0,1757.0,1696.0,1763.0,1747.0,30.31202507019043,-31.941389083862305,-34.30049133300781,Left
3661.056640625,126549,1,1759.0,1765.0,1775.0,1847.0,1755.0,1755.0,1751.0,1741.0,30.31202507019043,-31.941389083862305,-34.30049133300781,Left
3663.056640625,126549,1,1766.0,1768.0,1755.0,1669.0,1764.0,1785.0,1763.0,1759.0,30.31202507019043,-31.941389083862305,-34.30049133300781,Left
3665.056640625,126549,1,1767.0,1770.0,1756.0,1815.0,1759.0,1745.0,1763.0,1747.0,30.31202507019043,-31.941389083862305,-34.30049133300781,Left
3667.056640625,126549,1,1769.0,1771.0,1755.0,1638.0,1767.0,1728.0,1759.0,1752.0,30.31202507019043,-31.941389083862305,-34.30049133300781,Left
3669.056640625,126549,1,1763.0,1769.0,1755.0,1511.0,1757.0,1783.0,1762.0,1748.0,30.31202507019043,-31.941389083862305,-34.30049133300781,Left
3662.480712890625,126550,1,1763.0,1759.0,1757.0,1627.0,1752.0,1801.0,1762.0,1736.0,30.31202507019043,-31.941389083862305,-34.30049133300781,Left
3664.480712890625,126550,1,1739.0,1753.0,1758.0,1903.0,1741.0,1790.0,1762.0,1741.0,31.356115341186523,-32.2149543762207,-34.576194763183594,Left
3666.480712890625,126550,1,1755.0,1755.0,1756.0,2063.0,1748.0,1751.0,1761.0,1757.0,31.356115341186523,-32.2149543762207,-34.576194763183594,Left
3668.480712890625,126550,1,1767.0,1755.0,1755.0,2173.0,1737.0,1624.0,1757.0,1724.0,31.356115341186523,-32.2149543762207,-34.576194763183594,Left
3670.480712890625,126550,1,1750.0,1765.0,1757.0,2041.0,1749.0,1737.0,1763.0,1745.0,31.356115341186523,-32.2149543762207,-34.576194763183594,Left
3673.1708984375,126551,1,1758.0,1757.0,1751.0,1907.0,1751.0,1779.0,1759.0,1752.0,31.356115341186523,-32.2149543762207,-34.576194763183594,Left
3675.1708984375,126551,1,1765.0,1775.0,1754.0,1657.0,1757.0,1781.0,1759.0,1747.0,31.356115341186523,-32.2149543762207,-34.576194763183594,Left
3677.1708984375,126551,1,1757.0,1767.0,1756.0,1576.0,1755.0,1775.0,1757.0,1740.0,31.356115341186523,-32.2149543762207,-34.576194763183594,Left
3679.1708984375,126551,1,1769.0,1772.0,1755.0,1443.0,1763.0,1767.0,1758.0,1762.0,31.356115341186523,-32.2149543762207,-34.576194763183594,Left
3681.1708984375,126551,1,1765.0,1781.0,1753.0,1429.0,1755.0,1755.0,1757.0,1743.0,31.356115341186523,-32.2149543762207,-34.576194763183594,Left
3676.166015625,126552,1,1751.0,1759.0,1753.0,1497.0,1743.0,1711.0,1759.0,1740.0,31.356115341186523,-32.2149543762207,-34.576194763183594,Left
3678.166015625,126552,1,1748.0,1741.0,1761.0,1591.0,1743.0,1715.0,1759.0,1735.0,31.356115341186523,-32.2149543762207,-34.576194763183594,Left
3680.166015625,126552,1,1754.0,1749.0,1757.0,1848.0,1745.0,1741.0,1755.0,1754.0,31.356115341186523,-32.2149543762207,-34.576194763183594,Left
3682.166015625,126552,1,1767.0,1758.0,1755.0,1943.0,1749.0,1770.0,1752.0,1755.0,31.356115341186523,-32.2149543762207,-34.576194763183594,Left
3684.166015625,126552,1,1763.0,1765.0,1757.0,1901.0,1756.0,1779.0,1756.0,1766.0,31.356115341186523,-32.2149543762207,-34.576194763183594,Left
3722.319091796875,126553,1,1772.0,1755.0,1753.0,1829.0,1755.0,1751.0,1757.0,1751.0,31.356115341186523,-32.2149543762207,-34.576194763183594,Left
3724.319091796875,126553,1,1765.0,1765.0,1757.0,1778.0,1751.0,1779.0,1757.0,1756.0,31.356115341186523,-32.2149543762207,-34.576194763183594,Left
3726.319091796875,126553,1,1764.0,1759.0,1757.0,1673.0,1750.0,1783.0,1757.0,1749.0,31.356115341186523,-32.2149543762207,-34.576194763183594,Left
3728.319091796875,126553,1,1765.0,1769.0,1753.0,1465.0,1759.0,1759.0,1762.0,1757.0,31.356115341186523,-32.2149543762207,-34.576194763183594,Left
3730.319091796875,126553,1,1755.0,1766.0,1751.0,1437.0,1751.0,1735.0,1759.0,1750.0,31.356115341186523,-32.2149543762207,-34.576194763183594,Left
3723.328369140625,126554,1,1747.0,1755.0,1752.0,1331.0,1742.0,1719.0,1762.0,1733.0,31.356115341186523,-32.2149543762207,-34.576194763183594,Left
3725.328369140625,126554,1,1741.0,1755.0,1757.0,1620.0,1737.0,1692.0,1758.0,1727.0,31.356115341186523,-32.2149543762207,-34.576194763183594,Left
3727.328369140625,126554,1,1747.0,1754.0,1754.0,1939.0,1742.0,1721.0,1764.0,1741.0,31.356115341186523,-32.2149543762207,-34.576194763183594,Left
3729.328369140625,126554,1,1754.0,1762.0,1759.0,2136.0,1748.0,1749.0,1756.0,1741.0,31.356115341186523,-32.2149543762207,-34.576194763183594,Left
3731.328369140625,126554,1,1758.0,1767.0,1755.0,2191.0,1751.0,1791.0,1763.0,1752.0,31.356115341186523,-32.2149543762207,-34.576194763183594,Left
3723.328369140625,126555,1,1757.0,1758.0,1751.0,1971.0,1751.0,1767.0,1759.0,1749.0,31.356115341186523,-32.2149543762207,-34.576194763183594,Left
3725.328369140625,126555,1,1755.0,1764.0,1752.0,1891.0,1748.0,1725.0,1759.0,1748.0,31.356115341186523,-32.2149543762207,-34.576194763183594,Left
3727.328369140625,126555,1,1758.0,1763.0,1757.0,1678.0,1752.0,1749.0,1759.0,1749.0,31.356115341186523,-32.2149543762207,-34.576194763183594,Left
3729.328369140625,126555,1,1756.0,1763.0,1747.0,1641.0,1755.0,1738.0,1758.0,1741.0,31.356115341186523,-32.2149543762207,-34.576194763183594,Left
3731.328369140625,126555,1,1757.0,1765.0,1748.0,1267.0,1751.0,1737.0,1763.0,1737.0,31.356115341186523,-32.2149543762207,-34.576194763183594,Left
3724.339599609375,126556,1,1749.0,1753.0,1759.0,1483.0,1748.0,1717.0,1756.0,1754.0,31.356115341186523,-32.2149543762207,-34.576194763183594,Left
3726.339599609375,126556,1,1759.0,1755.0,1755.0,1782.0,1749.0,1763.0,1763.0,1763.0,31.356115341186523,-32.2149543762207,-34.576194763183594,Left
3728.339599609375,126556,1,1763.0,1751.0,1757.0,2089.0,1749.0,1803.0,1757.0,1755.0,31.356115341186523,-32.2149543762207,-34.576194763183594,Left
3730.339599609375,126556,1,1762.0,1757.0,1759.0,2222.0,1751.0,1767.0,1759.0,1752.0,31.356115341186523,-32.2149543762207,-34.576194763183594,Left
3732.339599609375,126556,1,1758.0,1759.0,1762.0,2235.0,1739.0,1768.0,1757.0,1749.0,38.658016204833984,-33.511741638183594,-36.08090591430664,Left
3727.76904296875,126557,1,1762.0,1763.0,1727.0,2111.0,1750.0,1751.0,1758.0,1746.0,38.658016204833984,-33.511741638183594,-36.08090591430664,Left
3729.76904296875,126557,1,1761.0,1765.0,1757.0,1885.0,1757.0,1752.0,1759.0,1749.0,38.658016204833984,-33.511741638183594,-36.08090591430664,Left
3731.76904296875,126557,1,1757.0,1757.0,1759.0,1651.0,1753.0,1735.0,1759.0,1754.0,38.658016204833984,-33.511741638183594,-36.08090591430664,Left
3733.76904296875,126557,1,1763.0,1763.0,1755.0,1262.0,1753.0,1704.0,1759.0,1743.0,38.658016204833984,-33.511741638183594,-36.08090591430664,Left
3735.76904296875,126557,1,1753.0,1759.0,1751.0,1245.0,1747.0,1727.0,1757.0,1737.0,38.658016204833984,-33.511741638183594,-36.08090591430664,Left
3737.802001953125,126558,1,1767.0,1758.0,1748.0,1575.0,1753.0,1770.0,1761.0,1751.0,38.658016204833984,-33.511741638183594,-36.08090591430664,Left
3739.802001953125,126558,1,1758.0,1752.0,1761.0,1952.0,1747.0,1789.0,1757.0,1746.0,38.658016204833984,-33.511741638183594,-36.08090591430664,Left
3741.802001953125,126558,1,1750.0,1755.0,1762.0,2149.0,1747.0,1767.0,1763.0,1747.0,38.658016204833984,-33.511741638183594,-36.08090591430664,Left
3743.802001953125,126558,1,1763.0,1762.0,1755.0,2072.0,1749.0,1709.0,1758.0,1742.0,38.658016204833984,-33.511741638183594,-36.08090591430664,Left
3745.802001953125,126558,1,1755.0,1759.0,1757.0,1963.0,1753.0,1737.0,1763.0,1737.0,38.658016204833984,-33.511741638183594,-36.08090591430664,Left
3746.787109375,126559,1,1768.0,1763.0,1754.0,1867.0,1753.0,1751.0,1763.0,1765.0,38.658016204833984,-33.511741638183594,-36.08090591430664,Left
3748.787109375,126559,1,1765.0,1763.0,1757.0,1679.0,1783.0,1759.0,1759.0,1743.0,38.658016204833984,-33.511741638183594,-36.08090591430664,Left
3750.787109375,126559,1,1761.0,1757.0,1749.0,1465.0,1751.0,1758.0,1759.0,1761.0,38.658016204833984,-33.511741638183594,-36.08090591430664,Left
3752.787109375,126559,1,1771.0,1764.0,1739.0,1239.0,1755.0,1763.0,1757.0,1755.0,38.658016204833984,-33.511741638183594,-36.08090591430664,Left
3754.787109375,126559,1,1768.0,1759.0,1753.0,1033.0,1763.0,1741.0,1762.0,1740.0,38.658016204833984,-33.511741638183594,-36.08090591430664,Left
3780.577392578125,126560,1,1755.0,1762.0,1749.0,1111.0,1755.0,1741.0,1760.0,1735.0,38.658016204833984,-33.511741638183594,-36.08090591430664,Left
3782.577392578125,126560,1,1752.0,1757.0,1763.0,1786.0,1755.0,1741.0,1758.0,1733.0,38.658016204833984,-33.511741638183594,-36.08090591430664,Left
3784.577392578125,126560,1,1749.0,1767.0,1765.0,2389.0,1743.0,1763.0,1756.0,1753.0,38.658016204833984,-33.511741638183594,-36.08090591430664,Left
3786.577392578125,126560,1,1767.0,1752.0,1759.0,2423.0,1747.0,1767.0,1759.0,1753.0,38.658016204833984,-33.511741638183594,-36.08090591430664,Left
3788.577392578125,126560,1,1773.0,1763.0,1762.0,2197.0,1768.0,1757.0,1764.0,1763.0,38.658016204833984,-33.511741638183594,-36.08090591430664,Left
3781.406005859375,126561,1,1755.0,1768.0,1751.0,1852.0,1755.0,1767.0,1758.0,1759.0,38.658016204833984,-33.511741638183594,-36.08090591430664,Left
3783.406005859375,126561,1,1769.0,1770.0,1757.0,1687.0,1753.0,1733.0,1759.0,1747.0,38.658016204833984,-33.511741638183594,-36.08090591430664,Left
3785.406005859375,126561,1,1757.0,1759.0,1757.0,1565.0,1753.0,1739.0,1763.0,1743.0,38.658016204833984,-33.511741638183594,-36.08090591430664,Left
3787.406005859375,126561,1,1779.0,1763.0,1753.0,1292.0,1757.0,1757.0,1756.0,1754.0,38.658016204833984,-33.511741638183594,-36.08090591430664,Left
3789.406005859375,126561,1,1771.0,1765.0,1753.0,1177.0,1759.0,1749.0,1759.0,1747.0,38.658016204833984,-33.511741638183594,-36.08090591430664,Left
3781.406005859375,126562,1,1765.0,1759.0,1752.0,1385.0,1755.0,1739.0,1758.0,1740.0,38.658016204833984,-33.511741638183594,-36.08090591430664,Left
3783.406005859375,126562,1,1751.0,1752.0,1756.0,2037.0,1747.0,1737.0,1757.0,1738.0,38.658016204833984,-33.511741638183594,-36.08090591430664,Left
3785.406005859375,126562,1,1753.0,1763.0,1759.0,2595.0,1752.0,1740.0,1753.0,1747.0,38.658016204833984,-33.511741638183594,-36.08090591430664,Left
3787.406005859375,126562,1,1759.0,1762.0,1759.0,2645.0,1751.0,1751.0,1757.0,1749.0,38.658016204833984,-33.511741638183594,-36.08090591430664,Left
3789.406005859375,126562,1,1762.0,1761.0,1755.0,2343.0,1753.0,1750.0,1759.0,1751.0,38.658016204833984,-33.511741638183594,-36.08090591430664,Left
3786.40380859375,126563,1,1763.0,1755.0,1759.0,1964.0,1747.0,1755.0,1763.0,1753.0,38.658016204833984,-33.511741638183594,-36.08090591430664,Left
3788.40380859375,126563,1,1769.0,1769.0,1757.0,1655.0,1757.0,1762.0,1759.0,1751.0,40.806373596191406,-36.73045349121094,-35.13322830200195,Left
3790.40380859375,126563,1,1753.0,1766.0,1755.0,1469.0,1753.0,1753.0,1763.0,1743.0,40.806373596191406,-36.73045349121094,-35.13322830200195,Left
3792.40380859375,126563,1,1756.0,1767.0,1749.0,1141.0,1749.0,1757.0,1759.0,1748.0,40.806373596191406,-36.73045349121094,-35.13322830200195,Left
3794.40380859375,126563,1,1764.0,1763.0,1749.0,991.0,1754.0,1751.0,1759.0,1751.0,40.806373596191406,-36.73045349121094,-35.13322830200195,Left
3798.9150390625,126564,1,1757.0,1765.0,1753.0,1431.0,1751.0,1749.0,1759.0,1751.0,40.806373596191406,-36.73045349121094,-35.13322830200195,Left
3800.9150390625,126564,1,1770.0,1765.0,1759.0,2023.0,1748.0,1747.0,1757.0,1752.0,40.806373596191406,-36.73045349121094,-35.13322830200195,Left
3802.9150390625,126564,1,1751.0,1759.0,1759.0,2351.0,1751.0,1741.0,1757.0,1749.0,40.806373596191406,-36.73045349121094,-35.13322830200195,Left
3804.9150390625,126564,1,1749.0,1763.0,1757.0,2345.0,1749.0,1745.0,1759.0,1752.0,40.806373596191406,-36.73045349121094,-35.13322830200195,Left
3806.9150390625,126564,1,1756.0,1764.0,1756.0,2261.0,1749.0,1759.0,1763.0,1754.0,40.806373596191406,-36.73045349121094,-35.13322830200195,Left
3808.42431640625,126565,1,1753.0,1759.0,1758.0,2121.0,1748.0,1757.0,1759.0,1742.0,40.806373596191406,-36.73045349121094,-35.13322830200195,Left
3810.42431640625,126565,1,1759.0,1763.0,1755.0,1768.0,1747.0,1751.0,1758.0,1746.0,40.806373596191406,-36.73045349121094,-35.13322830200195,Left
3812.42431640625,126565,1,1763.0,1763.0,1754.0,1604.0,1747.0,1750.0,1758.0,1749.0,40.806373596191406,-36.73045349121094,-35.13322830200195,Left
3814.42431640625,126565,1,1773.0,1772.0,1749.0,1231.0,1753.0,1747.0,1758.0,1751.0,40.806373596191406,-36.73045349121094,-35.13322830200195,Left
3816.42431640625,126565,1,1764.0,1769.0,1749.0,973.0,1749.0,1755.0,1761.0,1749.0,40.806373596191406,-36.73045349121094,-35.13322830200195,Left
3818.130126953125,126566,1,1753.0,1766.0,1747.0,1176.0,1753.0,1747.0,1761.0,1743.0,40.806373596191406,-36.73045349121094,-35.13322830200195,Left
3820.130126953125,126566,1,1756.0,1771.0,1757.0,1845.0,1743.0,1741.0,1757.0,1748.0,40.806373596191406,-36.73045349121094,-35.13322830200195,Left
3822.130126953125,126566,1,1756.0,1767.0,1762.0,2333.0,1741.0,1774.0,1757.0,1748.0,40.806373596191406,-36.73045349121094,-35.13322830200195,Left
3824.130126953125,126566,1,1749.0,1759.0,1762.0,2530.0,1739.0,1739.0,1759.0,1737.0,40.806373596191406,-36.73045349121094,-35.13322830200195,Left
3826.130126953125,126566,1,1764.0,1756.0,1757.0,2325.0,1747.0,1724.0,1757.0,1758.0,40.806373596191406,-36.73045349121094,-35.13322830200195,Left
3828.614990234375,126567,1,1759.0,1750.0,1754.0,1950.0,1747.0,1756.0,1757.0,1751.0,40.806373596191406,-36.73045349121094,-35.13322830200195,Left
3830.614990234375,126567,1,1757.0,1767.0,1757.0,1827.0,1746.0,1757.0,1762.0,1749.0,40.806373596191406,-36.73045349121094,-35.13322830200195,Left
3832.614990234375,126567,1,1763.0,1765.0,1759.0,1452.0,1693.0,1755.0,1763.0,1745.0,40.806373596191406,-36.73045349121094,-35.13322830200195,Left
3834.614990234375,126567,1,1765.0,1769.0,1755.0,1145.0,1735.0,1753.0,1763.0,1751.0,40.806373596191406,-36.73045349121094,-35.13322830200195,Left
3836.614990234375,126567,1,1761.0,1775.0,1755.0,935.0,1766.0,1753.0,1762.0,1749.0,40.806373596191406,-36.73045349121094,-35.13322830200195,Left
3841.1630859375,126568,1,1759.0,1756.0,1756.0,1309.0,1765.0,1754.0,1763.0,1742.0,40.806373596191406,-36.73045349121094,-35.13322830200195,Left
3843.1630859375,126568,1,1758.0,1754.0,1758.0,2135.0,1758.0,1746.0,1759.0,1743.0,40.806373596191406,-36.73045349121094,-35.13322830200195,Left
3845.1630859375,126568,1,1764.0,1747.0,1764.0,2480.0,1763.0,1757.0,1756.0,1753.0,40.806373596191406,-36.73045349121094,-35.13322830200195,Left
3847.1630859375,126568,1,1757.0,1743.0,1758.0,2774.0,1757.0,1757.0,1757.0,1747.0,40.806373596191406,-36.73045349121094,-35.13322830200195,Left
3849.1630859375,126568,1,1757.0,1753.0,1757.0,2489.0,1757.0,1758.0,1758.0,1751.0,40.806373596191406,-36.73045349121094,-35.13322830200195,Left
3848.4755859375,126569,1,1759.0,1749.0,1755.0,1989.0,1757.0,1740.0,1759.0,1742.0,40.806373596191406,-36.73045349121094,-35.13322830200195,Left
3850.4755859375,126569,1,1761.0,1753.0,1753.0,1477.0,1759.0,1753.0,1759.0,1752.0,40.806373596191406,-36.73045349121094,-35.13322830200195,Left
3852.4755859375,126569,1,1767.0,1753.0,1751.0,1315.0,1767.0,1763.0,1762.0,1751.0,40.806373596191406,-36.73045349121094,-35.13322830200195,Left
3854.4755859375,126569,1,1765.0,1753.0,1755.0,991.0,1767.0,1743.0,1759.0,1739.0,40.806373596191406,-36.73045349121094,-35.13322830200195,Left
3856.4755859375,126569,1,1767.0,1759.0,1749.0,761.0,1757.0,1737.0,1757.0,1751.0,45.69425582885742,-42.556400299072266,-35.30833435058594,Left
3857.89501953125,126570,1,1757.0,1755.0,1751.0,1197.0,1751.0,1751.0,1758.0,1743.0,45.69425582885742,-42.556400299072266,-35.30833435058594,Left
3859.89501953125,126570,1,1763.0,1753.0,1756.0,1869.0,1757.0,1743.0,1761.0,1741.0,45.69425582885742,-42.556400299072266,-35.30833435058594,Left
3861.89501953125,126570,1,1763.0,1753.0,1757.0,2259.0,1755.0,1741.0,1757.0,1740.0,45.69425582885742,-42.556400299072266,-35.30833435058594,Left
3863.89501953125,126570,1,1752.0,1758.0,1763.0,2747.0,1752.0,1766.0,1763.0,1743.0,45.69425582885742,-42.556400299072266,-35.30833435058594,Left
3865.89501953125,126570,1,1748.0,1757.0,1753.0,2703.0,1755.0,1771.0,1757.0,1752.0,45.69425582885742,-42.556400299072266,-35.30833435058594,Left
3904.8388671875,126571,1,1757.0,1759.0,1752.0,2158.0,1763.0,1752.0,1761.0,1767.0,45.69425582885742,-42.556400299072266,-35.30833435058594,Left
3906.8388671875,126571,1,1758.0,1769.0,1756.0,1771.0,1759.0,1726.0,1763.0,1763.0,45.69425582885742,-42.556400299072266,-35.30833435058594,Left
3908.8388671875,126571,1,1763.0,1766.0,1757.0,1509.0,1758.0,1755.0,1761.0,1756.0,45.69425582885742,-42.556400299072266,-35.30833435058594,Left
3910.8388671875,126571,1,1763.0,1765.0,1749.0,1133.0,1756.0,1741.0,1757.0,1741.0,45.69425582885742,-42.556400299072266,-35.30833435058594,Left
3912.8388671875,126571,1,1755.0,1764.0,1753.0,947.0,1750.0,1741.0,1763.0,1739.0,45.69425582885742,-42.556400299072266,-35.30833435058594,Left
3906.228759765625,126572,1,1755.0,1757.0,1751.0,1209.0,1740.0,1763.0,1758.0,1749.0,45.69425582885742,-42.556400299072266,-35.30833435058594,Left
3908.228759765625,126572,1,1757.0,1753.0,1762.0,1961.0,1747.0,1727.0,1757.0,1747.0,45.69425582885742,-42.556400299072266,-35.30833435058594,Left
3910.228759765625,126572,1,1754.0,1751.0,1758.0,2539.0,1746.0,1769.0,1759.0,1746.0,45.69425582885742,-42.556400299072266,-35.30833435058594,Left
3912.228759765625,126572,1,1752.0,1757.0,1757.0,2779.0,1741.0,1753.0,1759.0,1740.0,45.69425582885742,-42.556400299072266,-35.30833435058594,Left
3914.228759765625,126572,1,1755.0,1755.0,1757.0,2591.0,1749.0,1763.0,1759.0,1749.0,45.69425582885742,-42.556400299072266,-35.30833435058594,Left
3906.734619140625,126573,1,1753.0,1748.0,1733.0,2099.0,1751.0,1743.0,1759.0,1743.0,45.69425582885742,-42.556400299072266,-35.30833435058594,Left
3908.734619140625,126573,1,1757.0,1765.0,1727.0,1789.0,1758.0,1758.0,1762.0,1765.0,45.69425582885742,-42.556400299072266,-35.30833435058594,Left
3910.734619140625,126573,1,1762.0,1767.0,1769.0,1427.0,1758.0,1739.0,1763.0,1747.0,45.69425582885742,-42.556400299072266,-35.30833435058594,Left
3912.734619140625,126573,1,1753.0,1772.0,1687.0,934.0,1753.0,1748.0,1761.0,1738.0,45.69425582885742,-42.556400299072266,-35.30833435058594,Left
3914.734619140625,126573,1,1748.0,1771.0,1743.0,780.0,1751.0,1756.0,1763.0,1733.0,45.69425582885742,-42.556400299072266,-35.30833435058594,Left
3906.734619140625,126574,1,1756.0,1747.0,1783.0,1211.0,1741.0,1756.0,1759.0,1747.0,45.69425582885742,-42.556400299072266,-35.30833435058594,Left
3908.734619140625,126574,1,1747.0,1753.0,1779.0,2025.0,1739.0,1751.0,1757.0,1750.0,45.69425582885742,-42.556400299072266,-35.30833435058594,Left
3910.734619140625,126574,1,1763.0,1756.0,1772.0,2726.0,1742.0,1749.0,1762.0,1752.0,45.69425582885742,-42.556400299072266,-35.30833435058594,Left
3912.734619140625,126574,1,1765.0,1763.0,1771.0,2861.0,1741.0,1765.0,1759.0,1757.0,45.69425582885742,-42.556400299072266,-35.30833435058594,Left
3914.734619140625,126574,1,1757.0,1756.0,1767.0,2645.0,1748.0,1757.0,1757.0,1749.0,45.69425582885742,-42.556400299072266,-35.30833435058594,Left
3907.55908203125,126575,1,1757.0,1764.0,1741.0,2312.0,1749.0,1759.0,1758.0,1757.0,45.69425582885742,-42.556400299072266,-35.30833435058594,Left
3909.55908203125,126575,1,1769.0,1767.0,1752.0,2154.0,1759.0,1725.0,1756.0,1764.0,45.69425582885742,-42.556400299072266,-35.30833435058594,Left
3911.55908203125,126575,1,1778.0,1768.0,1688.0,1869.0,1765.0,1751.0,1766.0,1757.0,45.69425582885742,-42.556400299072266,-35.30833435058594,Left
3913.55908203125,126575,1,1765.0,1765.0,1769.0,1461.0,1752.0,1757.0,1759.0,1740.0,45.69425582885742,-42.556400299072266,-35.30833435058594,Left
3915.55908203125,126575,1,1751.0,1764.0,1773.0,1115.0,1748.0,1747.0,1759.0,1727.0,45.69425582885742,-42.556400299072266,-35.30833435058594,Left
3918.337646484375,126576,1,1747.0,1752.0,1773.0,1567.0,1749.0,1734.0,1763.0,1736.0,45.69425582885742,-42.556400299072266,-35.30833435058594,Left
3920.337646484375,126576,1,1756.0,1755.0,1771.0,2069.0,1740.0,1759.0,1762.0,1745.0,45.69425582885742,-42.556400299072266,-35.30833435058594,Left
3922.337646484375,126576,1,1763.0,1741.0,1770.0,2479.0,1737.0,1763.0,1759.0,1749.0,45.69425582885742,-42.556400299072266,-35.30833435058594,Left
3924.337646484375,126576,1,1767.0,1741.0,1767.0,2480.0,1743.0,1752.0,1759.0,1762.0,45.69425582885742,-42.556400299072266,-35.30833435058594,Left
3926.337646484375,126576,1,1773.0,1750.0,1702.0,2220.0,1756.0,1742.0,1763.0,1753.0,54.78017044067383,-46.92452621459961,-33.80050277709961,Left
3928.3271484375,126577,1,1766.0,1739.0,1767.0,1645.0,1755.0,1769.0,1757.0,1739.0,54.78017044067383,-46.92452621459961,-33.80050277709961,Left
3930.3271484375,126577,1,1763.0,1753.0,1787.0,1499.0,1755.0,1755.0,1758.0,1741.0,54.78017044067383,-46.92452621459961,-33.80050277709961,Left
3932.3271484375,126577,1,1766.0,1763.0,1781.0,1151.0,1759.0,1757.0,1767.0,1752.0,54.78017044067383,-46.92452621459961,-33.80050277709961,Left
3934.3271484375,126577,1,1757.0,1759.0,1775.0,869.0,1757.0,1767.0,1758.0,1755.0,54.78017044067383,-46.92452621459961,-33.80050277709961,Left
3936.3271484375,126577,1,1749.0,1749.0,1775.0,685.0,1752.0,1753.0,1757.0,1743.0,54.78017044067383,-46.92452621459961,-33.80050277709961,Left
3945.95654296875,126578,1,1755.0,1743.0,1767.0,979.0,1743.0,1734.0,1759.0,1739.0,54.78017044067383,-46.92452621459961,-33.80050277709961,Left
3947.95654296875,126578,1,1749.0,1747.0,1768.0,1711.0,1739.0,1739.0,1763.0,1735.0,54.78017044067383,-46.92452621459961,-33.80050277709961,Left
3949.95654296875,126578,1,1752.0,1756.0,1766.0,2199.0,1740.0,1737.0,1762.0,1740.0,54.78017044067383,-46.92452621459961,-33.80050277709961,Left
3951.95654296875,126578,1,1811.0,1771.0,1759.0,2288.0,1750.0,1765.0,1762.0,1755.0,54.78017044067383,-46.92452621459961,-33.80050277709961,Left
3953.95654296875,126578,1,1807.0,1758.0,1763.0,2110.0,1747.0,1756.0,1763.0,1749.0,54.78017044067383,-46.92452621459961,-33.80050277709961,Left
3946.9814453125,126579,1,1783.0,1758.0,1763.0,1811.0,1753.0,1746.0,1757.0,1755.0,54.78017044067383,-46.92452621459961,-33.80050277709961,Left
3948.9814453125,126579,1,1767.0,1750.0,1759.0,1631.0,1751.0,1749.0,1756.0,1746.0,54.78017044067383,-46.92452621459961,-33.80050277709961,Left
3950.9814453125,126579,1,1753.0,1763.0,1759.0,1366.0,1753.0,1759.0,1759.0,1751.0,54.78017044067383,-46.92452621459961,-33.80050277709961,Left
3952.9814453125,126579,1,1754.0,1767.0,1740.0,885.0,1765.0,1773.0,1759.0,1745.0,54.78017044067383,-46.92452621459961,-33.80050277709961,Left
3954.9814453125,126579,1,1756.0,1759.0,1759.0,811.0,1749.0,1741.0,1758.0,1737.0,54.78017044067383,-46.92452621459961,-33.80050277709961,Left
3958.162841796875,126580,1,1743.0,1758.0,1751.0,1053.0,1748.0,1741.0,1758.0,1749.0,54.78017044067383,-46.92452621459961,-33.80050277709961,Left
3960.162841796875,126580,1,1752.0,1758.0,1757.0,1619.0,1753.0,1749.0,1763.0,1749.0,54.78017044067383,-46.92452621459961,-33.80050277709961,Left
3962.162841796875,126580,1,1745.0,1752.0,1759.0,2089.0,1747.0,1735.0,1758.0,1747.0,54.78017044067383,-46.92452621459961,-33.80050277709961,Left
3964.162841796875,126580,1,1746.0,1753.0,1763.0,2503.0,1747.0,1739.0,1761.0,1740.0,54.78017044067383,-46.92452621459961,-33.80050277709961,Left
3966.162841796875,126580,1,1734.0,1754.0,1757.0,2133.0,1737.0,1754.0,1762.0,1750.0,54.78017044067383,-46.92452621459961,-33.80050277709961,Left
3966.80029296875,126581,1,1737.0,1763.0,1753.0,1855.0,1746.0,1775.0,1759.0,1750.0,54.78017044067383,-46.92452621459961,-33.80050277709961,Left
3968.80029296875,126581,1,1758.0,1755.0,1754.0,1581.0,1763.0,1737.0,1758.0,1739.0,54.78017044067383,-46.92452621459961,-33.80050277709961,Left
3970.80029296875,126581,1,1773.0,1766.0,1738.0,1482.0,1776.0,1761.0,1759.0,1743.0,54.78017044067383,-46.92452621459961,-33.80050277709961,Left
3972.80029296875,126581,1,1757.0,1755.0,1762.0,1171.0,1769.0,1757.0,1757.0,1755.0,54.78017044067383,-46.92452621459961,-33.80050277709961,Left
3974.80029296875,126581,1,1750.0,1751.0,1754.0,1102.0,1753.0,1750.0,1759.0,1750.0,54.78017044067383,-46.92452621459961,-33.80050277709961,Left
3978.236328125,126582,1,1748.0,1741.0,1749.0,1492.0,1749.0,1737.0,1762.0,1753.0,54.78017044067383,-46.92452621459961,-33.80050277709961,Left
3980.236328125,126582,1,1753.0,1747.0,1763.0,2036.0,1728.0,1757.0,1762.0,1747.0,54.78017044067383,-46.92452621459961,-33.80050277709961,Left
3982.236328125,126582,1,1749.0,1746.0,1763.0,2477.0,1738.0,1736.0,1758.0,1751.0,54.78017044067383,-46.92452621459961,-33.80050277709961,Left
3984.236328125,126582,1,1753.0,1750.0,1761.0,2715.0,1727.0,1750.0,1759.0,1747.0,54.78017044067383,-46.92452621459961,-33.80050277709961,Left
3986.236328125,126582,1,1749.0,1755.0,1753.0,2502.0,1745.0,1758.0,1762.0,1743.0,54.78017044067383,-46.92452621459961,-33.80050277709961,Left
3987.81298828125,126583,1,1754.0,1762.0,1755.0,2429.0,1749.0,1752.0,1763.0,1735.0,54.78017044067383,-46.92452621459961,-33.80050277709961,Left
3989.81298828125,126583,1,1737.0,1781.0,1755.0,2123.0,1751.0,1757.0,1762.0,1752.0,54.78017044067383,-46.92452621459961,-33.80050277709961,Left
3991.81298828125,126583,1,1755.0,1791.0,1767.0,1529.0,1748.0,1775.0,1764.0,1756.0,62.4135856628418,-47.86568832397461,-30.87514305114746,Left
3993.81298828125,126583,1,1767.0,1763.0,1753.0,1011.0,1755.0,1755.0,1764.0,1749.0,62.4135856628418,-47.86568832397461,-30.87514305114746,Left
3995.81298828125,126583,1,1765.0,1757.0,1741.0,791.0,1749.0,1758.0,1757.0,1749.0,62.4135856628418,-47.86568832397461,-30.87514305114746,Left
4019.304443359375,126584,1,1751.0,1747.0,1759.0,1157.0,1739.0,1727.0,1752.0,1737.0,62.4135856628418,-47.86568832397461,-30.87514305114746,Left
4021.304443359375,126584,1,1751.0,1747.0,1763.0,1588.0,1733.0,1741.0,1759.0,1749.0,62.4135856628418,-47.86568832397461,-30.87514305114746,Left
4023.304443359375,126584,1,1754.0,1749.0,1755.0,2011.0,1740.0,1751.0,1764.0,1755.0,62.4135856628418,-47.86568832397461,-30.87514305114746,Left
4025.304443359375,126584,1,1763.0,1755.0,1757.0,2163.0,1749.0,1749.0,1763.0,1748.0,62.4135856628418,-47.86568832397461,-30.87514305114746,Left
4027.304443359375,126584,1,1754.0,1757.0,1762.0,2043.0,1747.0,1746.0,1763.0,1749.0,62.4135856628418,-47.86568832397461,-30.87514305114746,Left
4020.316650390625,126585,1,1748.0,1757.0,1747.0,1801.0,1751.0,1762.0,1763.0,1749.0,62.4135856628418,-47.86568832397461,-30.87514305114746,Left
4022.316650390625,126585,1,1753.0,1755.0,1719.0,1427.0,1753.0,1749.0,1759.0,1755.0,62.4135856628418,-47.86568832397461,-30.87514305114746,Left
4024.316650390625,126585,1,1752.0,1745.0,1719.0,1353.0,1756.0,1753.0,1759.0,1756.0,62.4135856628418,-47.86568832397461,-30.87514305114746,Left
4026.316650390625,126585,1,1758.0,1755.0,1769.0,991.0,1755.0,1755.0,1759.0,1756.0,62.4135856628418,-47.86568832397461,-30.87514305114746,Left
4028.316650390625,126585,1,1757.0,1755.0,1747.0,873.0,1750.0,1756.0,1763.0,1747.0,62.4135856628418,-47.86568832397461,-30.87514305114746,Left
4020.316650390625,126586,1,1759.0,1756.0,1773.0,1063.0,1743.0,1757.0,1759.0,1737.0,62.4135856628418,-47.86568832397461,-30.87514305114746,Left
4022.316650390625,126586,1,1755.0,1755.0,1771.0,1753.0,1741.0,1746.0,1759.0,1751.0,62.4135856628418,-47.86568832397461,-30.87514305114746,Left
4024.316650390625,126586,1,1757.0,1752.0,1771.0,2231.0,1752.0,1755.0,1757.0,1749.0,62.4135856628418,-47.86568832397461,-30.87514305114746,Left
4026.316650390625,126586,1,1765.0,1763.0,1768.0,2443.0,1767.0,1741.0,1762.0,1757.0,62.4135856628418,-47.86568832397461,-30.87514305114746,Left
4028.316650390625,126586,1,1751.0,1757.0,1766.0,2157.0,1806.0,1753.0,1763.0,1741.0,62.4135856628418,-47.86568832397461,-30.87514305114746,Left
4028.31591796875,126587,1,1755.0,1753.0,1753.0,2105.0,1811.0,1735.0,1763.0,1747.0,62.4135856628418,-47.86568832397461,-30.87514305114746,Left
4030.31591796875,126587,1,1756.0,1757.0,1763.0,1775.0,1800.0,1750.0,1757.0,1741.0,62.4135856628418,-47.86568832397461,-30.87514305114746,Left
4032.31591796875,126587,1,1752.0,1755.0,1761.0,1471.0,1785.0,1736.0,1757.0,1747.0,62.4135856628418,-47.86568832397461,-30.87514305114746,Left
4034.31591796875,126587,1,1765.0,1755.0,1757.0,1101.0,1781.0,1741.0,1762.0,1751.0,62.4135856628418,-47.86568832397461,-30.87514305114746,Left
4036.31591796875,126587,1,1767.0,1763.0,1759.0,1022.0,1775.0,1775.0,1761.0,1783.0,62.4135856628418,-47.86568832397461,-30.87514305114746,Left
4048.83154296875,126588,1,1769.0,1751.0,1753.0,1277.0,1756.0,1768.0,1763.0,1759.0,62.4135856628418,-47.86568832397461,-30.87514305114746,Left
4050.83154296875,126588,1,1755.0,1752.0,1755.0,1820.0,1734.0,1757.0,1759.0,1743.0,62.4135856628418,-47.86568832397461,-30.87514305114746,Left
4052.83154296875,126588,1,1763.0,1753.0,1759.0,2267.0,1737.0,1749.0,1756.0,1740.0,62.4135856628418,-47.86568832397461,-30.87514305114746,Left
4054.83154296875,126588,1,1759.0,1751.0,1759.0,2363.0,1727.0,1737.0,1762.0,1733.0,62.4135856628418,-47.86568832397461,-30.87514305114746,Left
4056.83154296875,126588,1,1752.0,1759.0,1755.0,2295.0,1733.0,1737.0,1761.0,1743.0,62.4135856628418,-47.86568832397461,-30.87514305114746,Left
4052.49267578125,126589,1,1763.0,1763.0,1753.0,2041.0,1740.0,1749.0,1758.0,1739.0,62.4135856628418,-47.86568832397461,-30.87514305114746,Left
4054.49267578125,126589,1,1769.0,1769.0,1756.0,1819.0,1749.0,1758.0,1761.0,1755.0,62.4135856628418,-47.86568832397461,-30.87514305114746,Left
4056.49267578125,126589,1,1739.0,1763.0,1754.0,1593.0,1717.0,1739.0,1757.0,1741.0,62.4135856628418,-47.86568832397461,-30.87514305114746,Left
4058.49267578125,126589,1,1749.0,1765.0,1757.0,1141.0,1735.0,1749.0,1763.0,1747.0,62.4135856628418,-47.86568832397461,-30.87514305114746,Left
4060.49267578125,126589,1,1769.0,1771.0,1759.0,1060.0,1767.0,1753.0,1759.0,1751.0,64.42032623291016,-48.13241958618164,-29.084291458129883,Left
4056.505615234375,126590,1,1743.0,1753.0,1754.0,1253.0,1739.0,1751.0,1759.0,1747.0,64.42032623291016,-48.13241958618164,-29.084291458129883,Left
4058.505615234375,126590,1,1751.0,1755.0,1761.0,1948.0,1707.0,1755.0,1759.0,1747.0,64.42032623291016,-48.13241958618164,-29.084291458129883,Left
4060.505615234375,126590,1,1756.0,1769.0,1752.0,2443.0,1761.0,1761.0,1762.0,1749.0,64.42032623291016,-48.13241958618164,-29.084291458129883,Left
4062.505615234375,126590,1,1753.0,1752.0,1755.0,2694.0,1718.0,1739.0,1757.0,1737.0,64.42032623291016,-48.13241958618164,-29.084291458129883,Left
4064.505615234375,126590,1,1759.0,1721.0,1757.0,2496.0,1677.0,1742.0,1763.0,1765.0,64.42032623291016,-48.13241958618164,-29.084291458129883,Left
4069.828857421875,126591,1,1819.0,1783.0,1743.0,2169.0,1833.0,1751.0,1762.0,1763.0,64.42032623291016,-48.13241958618164,-29.084291458129883,Left
4071.828857421875,126591,1,1768.0,1779.0,1755.0,1797.0,1765.0,1758.0,1763.0,1757.0,64.42032623291016,-48.13241958618164,-29.084291458129883,Left
4073.828857421875,126591,1,1781.0,1787.0,1757.0,1505.0,1797.0,1754.0,1761.0,1750.0,64.42032623291016,-48.13241958618164,-29.084291458129883,Left
4075.828857421875,126591,1,1747.0,1773.0,1756.0,1008.0,1755.0,1752.0,1759.0,1733.0,64.42032623291016,-48.13241958618164,-29.084291458129883,Left
4077.828857421875,126591,1,1675.0,1765.0,1755.0,879.0,1685.0,1751.0,1759.0,1733.0,64.42032623291016,-48.13241958618164,-29.084291458129883,Left
4079.391357421875,126592,1,1739.0,1755.0,1748.0,1195.0,1727.0,1766.0,1763.0,1755.0,64.42032623291016,-48.13241958618164,-29.084291458129883,Left
4081.391357421875,126592,1,1753.0,1720.0,1757.0,1883.0,1683.0,1751.0,1763.0,1737.0,64.42032623291016,-48.13241958618164,-29.084291458129883,Left
4083.391357421875,126592,1,1783.0,1693.0,1757.0,2334.0,1720.0,1740.0,1759.0,1751.0,64.42032623291016,-48.13241958618164,-29.084291458129883,Left
4085.391357421875,126592,1,1790.0,1727.0,1757.0,2568.0,1703.0,1783.0,1761.0,1767.0,64.42032623291016,-48.13241958618164,-29.084291458129883,Left
4087.391357421875,126592,1,1753.0,1801.0,1759.0,2263.0,1783.0,1763.0,1759.0,1741.0,64.42032623291016,-48.13241958618164,-29.084291458129883,Left
4086.361083984375,126593,1,1767.0,1800.0,1758.0,2077.0,1831.0,1739.0,1763.0,1741.0,64.42032623291016,-48.13241958618164,-29.084291458129883,Left
4088.361083984375,126593,1,1788.0,1813.0,1753.0,1752.0,1851.0,1721.0,1762.0,1753.0,64.42032623291016,-48.13241958618164,-29.084291458129883,Left
4090.361083984375,126593,1,1741.0,1769.0,1756.0,1604.0,1767.0,1769.0,1757.0,1751.0,64.42032623291016,-48.13241958618164,-29.084291458129883,Left
4092.361083984375,126593,1,1749.0,1757.0,1758.0,1181.0,1769.0,1725.0,1759.0,1727.0,64.42032623291016,-48.13241958618164,-29.084291458129883,Left
4094.361083984375,126593,1,1737.0,1753.0,1755.0,1112.0,1723.0,1749.0,1763.0,1715.0,64.42032623291016,-48.13241958618164,-29.084291458129883,Left
4099.197265625,126594,1,1764.0,1748.0,1758.0,1227.0,1761.0,1749.0,1758.0,1747.0,64.42032623291016,-48.13241958618164,-29.084291458129883,Left
4101.197265625,126594,1,1753.0,1757.0,1755.0,1823.0,1738.0,1779.0,1763.0,1768.0,64.42032623291016,-48.13241958618164,-29.084291458129883,Left
4103.197265625,126594,1,1753.0,1747.0,1757.0,2188.0,1737.0,1763.0,1759.0,1770.0,64.42032623291016,-48.13241958618164,-29.084291458129883,Left
4105.197265625,126594,1,1756.0,1754.0,1725.0,2459.0,1741.0,1756.0,1759.0,1747.0,64.42032623291016,-48.13241958618164,-29.084291458129883,Left
4107.197265625,126594,1,1753.0,1768.0,1737.0,2335.0,1750.0,1727.0,1763.0,1753.0,64.42032623291016,-48.13241958618164,-29.084291458129883,Left
4251.52587890625,126595,1,1753.0,1754.0,1767.0,2099.0,1741.0,1725.0,1761.0,1733.0,64.42032623291016,-48.13241958618164,-29.084291458129883,Left
4253.52587890625,126595,1,1746.0,1758.0,1771.0,1844.0,1743.0,1721.0,1763.0,1734.0,64.42032623291016,-48.13241958618164,-29.084291458129883,Left
4255.52587890625,126595,1,1755.0,1765.0,1769.0,1684.0,1751.0,1757.0,1761.0,1749.0,64.42032623291016,-48.13241958618164,-29.084291458129883,Left
4257.52587890625,126595,1,1772.0,1766.0,1767.0,1179.0,1751.0,1767.0,1757.0,1746.0,64.42032623291016,-48.13241958618164,-29.084291458129883,Left
4259.52587890625,126595,1,1752.0,1765.0,1767.0,939.0,1740.0,1757.0,1759.0,1739.0,64.42032623291016,-48.13241958618164,-29.084291458129883,Left
4251.52587890625,126596,1,1763.0,1763.0,1759.0,1269.0,1735.0,1758.0,1759.0,1752.0,64.42032623291016,-48.13241958618164,-29.084291458129883,Left
4253.52587890625,126596,1,1767.0,1763.0,1757.0,1919.0,1737.0,1753.0,1759.0,1751.0,64.85376739501953,-48.54404830932617,-28.76308822631836,Left
4255.52587890625,126596,1,1755.0,1759.0,1756.0,2275.0,1735.0,1746.0,1763.0,1747.0,64.85376739501953,-48.54404830932617,-28.76308822631836,Left
4257.52587890625,126596,1,1765.0,1765.0,1757.0,2279.0,1739.0,1764.0,1763.0,1749.0,64.85376739501953,-48.54404830932617,-28.76308822631836,Left
4259.52587890625,126596,1,1757.0,1759.0,1757.0,2055.0,1735.0,1749.0,1759.0,1749.0,64.85376739501953,-48.54404830932617,-28.76308822631836,Left
4252.52294921875,126597,1,1765.0,1755.0,1755.0,1831.0,1740.0,1748.0,1763.0,1752.0,64.85376739501953,-48.54404830932617,-28.76308822631836,Left
4254.52294921875,126597,1,1751.0,1767.0,1755.0,1497.0,1742.0,1743.0,1759.0,1749.0,64.85376739501953,-48.54404830932617,-28.76308822631836,Left
4256.52294921875,126597,1,1749.0,1763.0,1758.0,1301.0,1749.0,1749.0,1763.0,1749.0,64.85376739501953,-48.54404830932617,-28.76308822631836,Left
4258.52294921875,126597,1,1763.0,1771.0,1757.0,1075.0,1750.0,1762.0,1761.0,1757.0,64.85376739501953,-48.54404830932617,-28.76308822631836,Left
4260.52294921875,126597,1,1764.0,1769.0,1755.0,923.0,1746.0,1758.0,1760.0,1751.0,64.85376739501953,-48.54404830932617,-28.76308822631836,Left
4252.52294921875,126598,1,1756.0,1763.0,1753.0,953.0,1737.0,1750.0,1763.0,1748.0,64.85376739501953,-48.54404830932617,-28.76308822631836,Left
4254.52294921875,126598,1,1759.0,1755.0,1755.0,1739.0,1733.0,1740.0,1759.0,1741.0,64.85376739501953,-48.54404830932617,-28.76308822631836,Left
4256.52294921875,126598,1,1755.0,1753.0,1756.0,2052.0,1735.0,1757.0,1763.0,1746.0,64.85376739501953,-48.54404830932617,-28.76308822631836,Left
4258.52294921875,126598,1,1756.0,1753.0,1756.0,2361.0,1739.0,1743.0,1763.0,1748.0,64.85376739501953,-48.54404830932617,-28.76308822631836,Left
4260.52294921875,126598,1,1772.0,1758.0,1757.0,2205.0,1749.0,1751.0,1762.0,1749.0,64.85376739501953,-48.54404830932617,-28.76308822631836,Left
4253.52294921875,126599,1,1765.0,1753.0,1750.0,1887.0,1752.0,1734.0,1759.0,1739.0,64.85376739501953,-48.54404830932617,-28.76308822631836,Left
4255.52294921875,126599,1,1767.0,1767.0,1755.0,1782.0,1753.0,1767.0,1763.0,1741.0,64.85376739501953,-48.54404830932617,-28.76308822631836,Left
4257.52294921875,126599,1,1757.0,1765.0,1756.0,1651.0,1757.0,1750.0,1763.0,1742.0,64.85376739501953,-48.54404830932617,-28.76308822631836,Left
4259.52294921875,126599,1,1765.0,1761.0,1756.0,1256.0,1759.0,1762.0,1763.0,1726.0,64.85376739501953,-48.54404830932617,-28.76308822631836,Left
4261.52294921875,126599,1,1757.0,1757.0,1755.0,1147.0,1753.0,1741.0,1763.0,1735.0,64.85376739501953,-48.54404830932617,-28.76308822631836,Left
4253.52294921875,126600,1,1745.0,1762.0,1754.0,1419.0,1752.0,1755.0,1751.0,1726.0,64.85376739501953,-48.54404830932617,-28.76308822631836,Left
4255.52294921875,126600,1,1765.0,1758.0,1757.0,2232.0,1740.0,1757.0,1761.0,1751.0,64.85376739501953,-48.54404830932617,-28.76308822631836,Left
4257.52294921875,126600,1,1755.0,1755.0,1757.0,2507.0,1741.0,1765.0,1762.0,1749.0,64.85376739501953,-48.54404830932617,-28.76308822631836,Left
4259.52294921875,126600,1,1753.0,1755.0,1757.0,2620.0,1747.0,1742.0,1759.0,1741.0,64.85376739501953,-48.54404830932617,-28.76308822631836,Left
4261.52294921875,126600,1,1759.0,1765.0,1757.0,2189.0,1757.0,1746.0,1759.0,1747.0,64.85376739501953,-48.54404830932617,-28.76308822631836,Left
4253.52294921875,126601,1,1765.0,1765.0,1757.0,2075.0,1763.0,1761.0,1756.0,1742.0,64.85376739501953,-48.54404830932617,-28.76308822631836,Left
4255.52294921875,126601,1,1757.0,1755.0,1757.0,1861.0,1751.0,1757.0,1759.0,1741.0,64.85376739501953,-48.54404830932617,-28.76308822631836,Left
4257.52294921875,126601,1,1749.0,1763.0,1755.0,1573.0,1741.0,1749.0,1759.0,1753.0,64.85376739501953,-48.54404830932617,-28.76308822631836,Left
4259.52294921875,126601,1,1769.0,1771.0,1757.0,1230.0,1781.0,1749.0,1759.0,1751.0,64.85376739501953,-48.54404830932617,-28.76308822631836,Left
4261.52294921875,126601,1,1762.0,1766.0,1757.0,1036.0,1749.0,1755.0,1759.0,1753.0,64.85376739501953,-48.54404830932617,-28.76308822631836,Left
4254.52294921875,126602,1,1769.0,1754.0,1756.0,1273.0,1753.0,1737.0,1764.0,1751.0,64.85376739501953,-48.54404830932617,-28.76308822631836,Left
4256.52294921875,126602,1,1745.0,1759.0,1757.0,1828.0,1727.0,1726.0,1759.0,1745.0,64.85376739501953,-48.54404830932617,-28.76308822631836,Left
4258.52294921875,126602,1,1747.0,1755.0,1758.0,2315.0,1735.0,1743.0,1758.0,1747.0,64.85376739501953,-48.54404830932617,-28.76308822631836,Left
4260.52294921875,126602,1,1771.0,1769.0,1757.0,2507.0,1769.0,1752.0,1759.0,1753.0,65.24015808105469,-47.762935638427734,-26.817689895629883,Left
4262.52294921875,126602,1,1759.0,1765.0,1759.0,2119.0,1755.0,1758.0,1758.0,1752.0,65.24015808105469,-47.762935638427734,-26.817689895629883,Left
4254.52294921875,126603,1,1755.0,1763.0,1756.0,1865.0,1749.0,1772.0,1759.0,1759.0,65.24015808105469,-47.762935638427734,-26.817689895629883,Left
4256.52294921875,126603,1,1769.0,1767.0,1755.0,1624.0,1753.0,1780.0,1763.0,1751.0,65.24015808105469,-47.762935638427734,-26.817689895629883,Left
4258.52294921875,126603,1,1757.0,1763.0,1757.0,1435.0,1743.0,1752.0,1757.0,1737.0,65.24015808105469,-47.762935638427734,-26.817689895629883,Left
4260.52294921875,126603,1,1741.0,1767.0,1753.0,1007.0,1767.0,1763.0,1758.0,1725.0,65.24015808105469,-47.762935638427734,-26.817689895629883,Left
4262.52294921875,126603,1,1768.0,1772.0,1758.0,943.0,1759.0,1749.0,1759.0,1757.0,65.24015808105469,-47.762935638427734,-26.817689895629883,Left
4255.52294921875,126604,1,1756.0,1761.0,1751.0,1310.0,1735.0,1747.0,1757.0,1737.0,65.24015808105469,-47.762935638427734,-26.817689895629883,Left
4257.52294921875,126604,1,1757.0,1749.0,1757.0,1949.0,1743.0,1720.0,1762.0,1751.0,65.24015808105469,-47.762935638427734,-26.817689895629883,Left
4259.52294921875,126604,1,1747.0,1759.0,1757.0,2221.0,1747.0,1737.0,1757.0,1753.0,65.24015808105469,-47.762935638427734,-26.817689895629883,Left
4261.52294921875,126604,1,1754.0,1759.0,1757.0,2348.0,1758.0,1747.0,1760.0,1745.0,65.24015808105469,-47.762935638427734,-26.817689895629883,Left
4263.52294921875,126604,1,1747.0,1753.0,1757.0,2269.0,1725.0,1737.0,1763.0,1747.0,65.24015808105469,-47.762935638427734,-26.817689895629883,Left
4255.52294921875,126605,1,1771.0,1749.0,1755.0,1909.0,1751.0,1749.0,1759.0,1752.0,65.24015808105469,-47.762935638427734,-26.817689895629883,Left
4257.52294921875,126605,1,1771.0,1766.0,1758.0,1670.0,1763.0,1755.0,1759.0,1768.0,65.24015808105469,-47.762935638427734,-26.817689895629883,Left
4259.52294921875,126605,1,1753.0,1765.0,1757.0,1500.0,1752.0,1759.0,1759.0,1749.0,65.24015808105469,-47.762935638427734,-26.817689895629883,Left
4261.52294921875,126605,1,1739.0,1765.0,1754.0,1249.0,1747.0,1769.0,1759.0,1751.0,65.24015808105469,-47.762935638427734,-26.817689895629883,Left
4263.52294921875,126605,1,1752.0,1757.0,1757.0,1144.0,1763.0,1769.0,1759.0,1757.0,65.24015808105469,-47.762935638427734,-26.817689895629883,Left
4255.52294921875,126606,1,1748.0,1741.0,1753.0,1422.0,1721.0,1747.0,1745.0,1727.0,65.24015808105469,-47.762935638427734,-26.817689895629883,Left
4257.52294921875,126606,1,1817.0,1775.0,1753.0,2024.0,1802.0,1753.0,1762.0,1785.0,65.24015808105469,-47.762935638427734,-26.817689895629883,Left
4259.52294921875,126606,1,1768.0,1757.0,1755.0,2412.0,1737.0,1735.0,1763.0,1742.0,65.24015808105469,-47.762935638427734,-26.817689895629883,Left
4261.52294921875,126606,1,1745.0,1753.0,1757.0,2487.0,1751.0,1709.0,1759.0,1737.0,65.24015808105469,-47.762935638427734,-26.817689895629883,Left
4263.52294921875,126606,1,1743.0,1755.0,1753.0,2327.0,1743.0,1737.0,1760.0,1739.0,65.24015808105469,-47.762935638427734,-26.817689895629883,Left
4255.52294921875,126607,1,1753.0,1759.0,1754.0,2103.0,1751.0,1769.0,1758.0,1758.0,65.24015808105469,-47.762935638427734,-26.817689895629883,Left
4257.52294921875,126607,1,1765.0,1765.0,1757.0,1865.0,1764.0,1763.0,1755.0,1755.0,65.24015808105469,-47.762935638427734,-26.817689895629883,Left
4259.52294921875,126607,1,1759.0,1765.0,1757.0,1583.0,1755.0,1755.0,1759.0,1748.0,65.24015808105469,-47.762935638427734,-26.817689895629883,Left
4261.52294921875,126607,1,1759.0,1768.0,1758.0,1138.0,1762.0,1762.0,1761.0,1748.0,65.24015808105469,-47.762935638427734,-26.817689895629883,Left
4263.52294921875,126607,1,1757.0,1767.0,1756.0,940.0,1756.0,1747.0,1757.0,1751.0,65.24015808105469,-47.762935638427734,-26.817689895629883,Left
4256.60302734375,126608,1,1755.0,1755.0,1754.0,1335.0,1747.0,1757.0,1753.0,1751.0,65.24015808105469,-47.762935638427734,-26.817689895629883,Left
4258.60302734375,126608,1,1757.0,1759.0,1752.0,1983.0,1748.0,1715.0,1761.0,1751.0,65.24015808105469,-47.762935638427734,-26.817689895629883,Left
4260.60302734375,126608,1,1759.0,1756.0,1758.0,2201.0,1745.0,1740.0,1761.0,1757.0,65.24015808105469,-47.762935638427734,-26.817689895629883,Left
4262.60302734375,126608,1,1756.0,1754.0,1756.0,2277.0,1751.0,1749.0,1763.0,1747.0,65.24015808105469,-47.762935638427734,-26.817689895629883,Left
4264.60302734375,126608,1,1749.0,1763.0,1757.0,2153.0,1751.0,1753.0,1761.0,1739.0,65.24015808105469,-47.762935638427734,-26.817689895629883,Left
4256.60302734375,126609,1,1756.0,1766.0,1753.0,1708.0,1753.0,1765.0,1752.0,1740.0,65.24015808105469,-47.762935638427734,-26.817689895629883,Left
4258.60302734375,126609,1,1766.0,1766.0,1757.0,1507.0,1751.0,1765.0,1763.0,1753.0,64.17586517333984,-46.88682174682617,-25.957380294799805,Left
4260.60302734375,126609,1,1755.0,1765.0,1757.0,1479.0,1763.0,1757.0,1758.0,1764.0,64.17586517333984,-46.88682174682617,-25.957380294799805,Left
4262.60302734375,126609,1,1757.0,1763.0,1757.0,1021.0,1764.0,1757.0,1763.0,1757.0,64.17586517333984,-46.88682174682617,-25.957380294799805,Left
4264.60302734375,126609,1,1755.0,1765.0,1755.0,947.0,1754.0,1764.0,1762.0,1743.0,64.17586517333984,-46.88682174682617,-25.957380294799805,Left
4257.85400390625,126610,1,1757.0,1760.0,1753.0,1051.0,1755.0,1765.0,1758.0,1759.0,64.17586517333984,-46.88682174682617,-25.957380294799805,Left
4259.85400390625,126610,1,1763.0,1753.0,1755.0,1780.0,1747.0,1745.0,1756.0,1758.0,64.17586517333984,-46.88682174682617,-25.957380294799805,Left
4261.85400390625,126610,1,1767.0,1757.0,1758.0,2093.0,1747.0,1757.0,1762.0,1751.0,64.17586517333984,-46.88682174682617,-25.957380294799805,Left
4263.85400390625,126610,1,1727.0,1755.0,1756.0,2187.0,1741.0,1743.0,1761.0,1746.0,64.17586517333984,-46.88682174682617,-25.957380294799805,Left
4265.85400390625,126610,1,1743.0,1755.0,1753.0,2193.0,1747.0,1759.0,1763.0,1741.0,64.17586517333984,-46.88682174682617,-25.957380294799805,Left
4268.60498046875,126611,1,1769.0,1757.0,1754.0,1990.0,1763.0,1747.0,1750.0,1739.0,64.17586517333984,-46.88682174682617,-25.957380294799805,Left
4270.60498046875,126611,1,1771.0,1765.0,1758.0,1684.0,1764.0,1747.0,1759.0,1751.0,64.17586517333984,-46.88682174682617,-25.957380294799805,Left
4272.60498046875,126611,1,1757.0,1764.0,1756.0,1639.0,1749.0,1740.0,1762.0,1753.0,64.17586517333984,-46.88682174682617,-25.957380294799805,Left
4274.60498046875,126611,1,1761.0,1769.0,1757.0,1183.0,1763.0,1727.0,1758.0,1740.0,64.17586517333984,-46.88682174682617,-25.957380294799805,Left
4276.60498046875,126611,1,1757.0,1764.0,1758.0,1199.0,1751.0,1751.0,1763.0,1747.0,64.17586517333984,-46.88682174682617,-25.957380294799805,Left
4276.59130859375,126612,1,1743.0,1757.0,1752.0,1445.0,1781.0,1767.0,1757.0,1735.0,64.17586517333984,-46.88682174682617,-25.957380294799805,Left
4278.59130859375,126612,1,1725.0,1757.0,1756.0,1833.0,1733.0,1752.0,1755.0,1741.0,64.17586517333984,-46.88682174682617,-25.957380294799805,Left
4280.59130859375,126612,1,1733.0,1751.0,1755.0,2181.0,1687.0,1751.0,1763.0,1737.0,64.17586517333984,-46.88682174682617,-25.957380294799805,Left
4282.59130859375,126612,1,1775.0,1757.0,1757.0,2351.0,1757.0,1743.0,1763.0,1757.0,64.17586517333984,-46.88682174682617,-25.957380294799805,Left
4284.59130859375,126612,1,1811.0,1757.0,1757.0,2203.0,1788.0,1752.0,1763.0,1758.0,64.17586517333984,-46.88682174682617,-25.957380294799805,Left
4287.55078125,126613,1,1769.0,1764.0,1749.0,2089.0,1767.0,1751.0,1757.0,1754.0,64.17586517333984,-46.88682174682617,-25.957380294799805,Left
4289.55078125,126613,1,1756.0,1765.0,1757.0,1748.0,1759.0,1759.0,1759.0,1753.0,64.17586517333984,-46.88682174682617,-25.957380294799805,Left
4291.55078125,126613,1,1767.0,1765.0,1756.0,1646.0,1763.0,1759.0,1764.0,1747.0,64.17586517333984,-46.88682174682617,-25.957380294799805,Left
4293.55078125,126613,1,1768.0,1763.0,1757.0,1333.0,1751.0,1755.0,1757.0,1753.0,64.17586517333984,-46.88682174682617,-25.957380294799805,Left
4295.55078125,126613,1,1754.0,1765.0,1757.0,1357.0,1752.0,1739.0,1763.0,1746.0,64.17586517333984,-46.88682174682617,-25.957380294799805,Left
4298.7197265625,126614,1,1749.0,1757.0,1750.0,1620.0,1725.0,1746.0,1759.0,1723.0,64.17586517333984,-46.88682174682617,-25.957380294799805,Left
4300.7197265625,126614,1,1739.0,1759.0,1763.0,2093.0,1735.0,1749.0,1759.0,1749.0,64.17586517333984,-46.88682174682617,-25.957380294799805,Left
4302.7197265625,126614,1,1741.0,1759.0,1755.0,2278.0,1725.0,1750.0,1762.0,1751.0,64.17586517333984,-46.88682174682617,-25.957380294799805,Left
4304.7197265625,126614,1,1773.0,1765.0,1758.0,2500.0,1755.0,1747.0,1763.0,1753.0,64.17586517333984,-46.88682174682617,-25.957380294799805,Left
4306.7197265625,126614,1,1767.0,1763.0,1757.0,2377.0,1763.0,1752.0,1762.0,1745.0,64.17586517333984,-46.88682174682617,-25.957380294799805,Left
4307.73486328125,126615,1,1776.0,1759.0,1756.0,2173.0,1775.0,1753.0,1753.0,1759.0,64.17586517333984,-46.88682174682617,-25.957380294799805,Left
4309.73486328125,126615,1,1753.0,1765.0,1747.0,1669.0,1753.0,1753.0,1759.0,1747.0,64.17586517333984,-46.88682174682617,-25.957380294799805,Left
4311.73486328125,126615,1,1747.0,1759.0,1756.0,1353.0,1747.0,1753.0,1758.0,1739.0,64.17586517333984,-46.88682174682617,-25.957380294799805,Left
4313.73486328125,126615,1,1752.0,1767.0,1755.0,971.0,1753.0,1762.0,1757.0,1749.0,65.43460083007812,-46.448116302490234,-26.1208553314209,Left
4315.73486328125,126615,1,1755.0,1756.0,1756.0,874.0,1752.0,1747.0,1762.0,1751.0,65.43460083007812,-46.448116302490234,-26.1208553314209,Left
4323.916015625,126616,1,1765.0,1763.0,1753.0,1165.0,1752.0,1748.0,1746.0,1750.0,65.43460083007812,-46.448116302490234,-26.1208553314209,Left
4325.916015625,126616,1,1753.0,1754.0,1758.0,1839.0,1736.0,1741.0,1763.0,1739.0,65.43460083007812,-46.448116302490234,-26.1208553314209,Left
4327.916015625,126616,1,1755.0,1755.0,1755.0,2133.0,1739.0,1757.0,1759.0,1740.0,65.43460083007812,-46.448116302490234,-26.1208553314209,Left
4329.916015625,126616,1,1755.0,1755.0,1757.0,2332.0,1738.0,1736.0,1757.0,1742.0,65.43460083007812,-46.448116302490234,-26.1208553314209,Left
4331.916015625,126616,1,1763.0,1765.0,1754.0,2252.0,1757.0,1756.0,1757.0,1757.0,65.43460083007812,-46.448116302490234,-26.1208553314209,Left
4328.91650390625,126617,1,1763.0,1753.0,1757.0,2165.0,1753.0,1735.0,1763.0,1736.0,65.43460083007812,-46.448116302490234,-26.1208553314209,Left
4330.91650390625,126617,1,1765.0,1764.0,1755.0,1775.0,1757.0,1725.0,1764.0,1741.0,65.43460083007812,-46.448116302490234,-26.1208553314209,Left
4332.91650390625,126617,1,1756.0,1763.0,1755.0,1669.0,1757.0,1764.0,1767.0,1751.0,65.43460083007812,-46.448116302490234,-26.1208553314209,Left
4334.91650390625,126617,1,1757.0,1765.0,1755.0,1187.0,1755.0,1765.0,1759.0,1742.0,65.43460083007812,-46.448116302490234,-26.1208553314209,Left
4336.91650390625,126617,1,1757.0,1765.0,1757.0,889.0,1749.0,1799.0,1757.0,1767.0,65.43460083007812,-46.448116302490234,-26.1208553314209,Left
4337.99853515625,126618,1,1757.0,1765.0,1757.0,1383.0,1751.0,1769.0,1763.0,1757.0,65.43460083007812,-46.448116302490234,-26.1208553314209,Left
4339.99853515625,126618,1,1755.0,1757.0,1756.0,2022.0,1749.0,1715.0,1759.0,1747.0,65.43460083007812,-46.448116302490234,-26.1208553314209,Left
4341.99853515625,126618,1,1757.0,1755.0,1759.0,2222.0,1743.0,1727.0,1759.0,1734.0,65.43460083007812,-46.448116302490234,-26.1208553314209,Left
4343.99853515625,126618,1,1750.0,1752.0,1755.0,2468.0,1737.0,1747.0,1763.0,1736.0,65.43460083007812,-46.448116302490234,-26.1208553314209,Left
4345.99853515625,126618,1,1767.0,1757.0,1756.0,2189.0,1751.0,1749.0,1761.0,1743.0,65.43460083007812,-46.448116302490234,-26.1208553314209,Left
4368.32373046875,126619,1,1753.0,1753.0,1751.0,1925.0,1747.0,1741.0,1757.0,1746.0,65.43460083007812,-46.448116302490234,-26.1208553314209,Left
4370.32373046875,126619,1,1766.0,1759.0,1757.0,1670.0,1753.0,1755.0,1757.0,1747.0,65.43460083007812,-46.448116302490234,-26.1208553314209,Left
4372.32373046875,126619,1,1764.0,1763.0,1762.0,1491.0,1755.0,1755.0,1757.0,1765.0,65.43460083007812,-46.448116302490234,-26.1208553314209,Left
4374.32373046875,126619,1,1757.0,1765.0,1753.0,1075.0,1759.0,1759.0,1759.0,1757.0,65.43460083007812,-46.448116302490234,-26.1208553314209,Left
4376.32373046875,126619,1,1765.0,1764.0,1757.0,1124.0,1750.0,1763.0,1759.0,1743.0,65.43460083007812,-46.448116302490234,-26.1208553314209,Left
4368.32373046875,126620,1,1752.0,1755.0,1757.0,1307.0,1748.0,1749.0,1758.0,1747.0,65.43460083007812,-46.448116302490234,-26.1208553314209,Left
4370.32373046875,126620,1,1759.0,1751.0,1757.0,1957.0,1735.0,1739.0,1763.0,1747.0,65.43460083007812,-46.448116302490234,-26.1208553314209,Left
4372.32373046875,126620,1,1753.0,1757.0,1757.0,2355.0,1741.0,1741.0,1758.0,1743.0,65.43460083007812,-46.448116302490234,-26.1208553314209,Left
4374.32373046875,126620,1,1755.0,1753.0,1757.0,2587.0,1743.0,1771.0,1758.0,1754.0,65.43460083007812,-46.448116302490234,-26.1208553314209,Left
4376.32373046875,126620,1,1758.0,1762.0,1756.0,2325.0,1753.0,1759.0,1757.0,1755.0,65.43460083007812,-46.448116302490234,-26.1208553314209,Left
4368.32373046875,126621,1,1757.0,1765.0,1751.0,2040.0,1758.0,1757.0,1749.0,1745.0,65.43460083007812,-46.448116302490234,-26.1208553314209,Left
4370.32373046875,126621,1,1765.0,1761.0,1756.0,1815.0,1759.0,1755.0,1762.0,1759.0,65.43460083007812,-46.448116302490234,-26.1208553314209,Left
4372.32373046875,126621,1,1768.0,1769.0,1759.0,1589.0,1756.0,1757.0,1762.0,1751.0,65.43460083007812,-46.448116302490234,-26.1208553314209,Left
4374.32373046875,126621,1,1764.0,1765.0,1755.0,1372.0,1753.0,1755.0,1759.0,1743.0,65.43460083007812,-46.448116302490234,-26.1208553314209,Left
4376.32373046875,126621,1,1741.0,1759.0,1755.0,1176.0,1741.0,1753.0,1763.0,1737.0,65.43460083007812,-46.448116302490234,-26.1208553314209,Left
4405.93896484375,126622,1,1756.0,1757.0,1767.0,1333.0,1747.0,1749.0,1762.0,1747.0,65.43460083007812,-46.448116302490234,-26.1208553314209,Left
4407.93896484375,126622,1,1765.0,1753.0,1756.0,1926.0,1748.0,1743.0,1764.0,1753.0,65.83806610107422,-46.09512710571289,-26.145193099975586,Left
4409.93896484375,126622,1,1757.0,1755.0,1757.0,2156.0,1736.0,1737.0,1759.0,1739.0,65.83806610107422,-46.09512710571289,-26.145193099975586,Left
4411.93896484375,126622,1,1748.0,1752.0,1756.0,2313.0,1738.0,1747.0,1761.0,1742.0,65.83806610107422,-46.09512710571289,-26.145193099975586,Left
4413.93896484375,126622,1,1751.0,1759.0,1754.0,2167.0,1748.0,1741.0,1759.0,1747.0,65.83806610107422,-46.09512710571289,-26.145193099975586,Left
4405.93896484375,126623,1,1759.0,1766.0,1749.0,2027.0,1753.0,1753.0,1759.0,1755.0,65.83806610107422,-46.09512710571289,-26.145193099975586,Left
4407.93896484375,126623,1,1751.0,1767.0,1755.0,1755.0,1755.0,1751.0,1759.0,1743.0,65.83806610107422,-46.09512710571289,-26.145193099975586,Left
4409.93896484375,126623,1,1763.0,1758.0,1757.0,1515.0,1758.0,1761.0,1757.0,1763.0,65.83806610107422,-46.09512710571289,-26.145193099975586,Left
4411.93896484375,126623,1,1763.0,1763.0,1756.0,1350.0,1753.0,1771.0,1763.0,1763.0,65.83806610107422,-46.09512710571289,-26.145193099975586,Left
4413.93896484375,126623,1,1751.0,1757.0,1757.0,1365.0,1743.0,1755.0,1760.0,1741.0,65.83806610107422,-46.09512710571289,-26.145193099975586,Left
4405.93896484375,126624,1,1758.0,1755.0,1748.0,1451.0,1763.0,1749.0,1759.0,1746.0,65.83806610107422,-46.09512710571289,-26.145193099975586,Left
4407.93896484375,126624,1,1765.0,1756.0,1756.0,2124.0,1747.0,1740.0,1763.0,1747.0,65.83806610107422,-46.09512710571289,-26.145193099975586,Left
4409.93896484375,126624,1,1747.0,1757.0,1755.0,2517.0,1727.0,1739.0,1763.0,1752.0,65.83806610107422,-46.09512710571289,-26.145193099975586,Left
4411.93896484375,126624,1,1755.0,1756.0,1756.0,2687.0,1753.0,1746.0,1762.0,1752.0,65.83806610107422,-46.09512710571289,-26.145193099975586,Left
4413.93896484375,126624,1,1773.0,1757.0,1757.0,2427.0,1767.0,1751.0,1757.0,1754.0,65.83806610107422,-46.09512710571289,-26.145193099975586,Left
4407.2099609375,126625,1,1756.0,1756.0,1751.0,2119.0,1751.0,1763.0,1759.0,1750.0,65.83806610107422,-46.09512710571289,-26.145193099975586,Left
4409.2099609375,126625,1,1749.0,1759.0,1755.0,1775.0,1749.0,1717.0,1758.0,1739.0,65.83806610107422,-46.09512710571289,-26.145193099975586,Left
4411.2099609375,126625,1,1747.0,1766.0,1755.0,1583.0,1751.0,1734.0,1757.0,1739.0,65.83806610107422,-46.09512710571289,-26.145193099975586,Left
4413.2099609375,126625,1,1762.0,1766.0,1756.0,1250.0,1767.0,1787.0,1759.0,1751.0,65.83806610107422,-46.09512710571289,-26.145193099975586,Left
4415.2099609375,126625,1,1765.0,1757.0,1755.0,1203.0,1753.0,1783.0,1761.0,1757.0,65.83806610107422,-46.09512710571289,-26.145193099975586,Left
4418.78955078125,126626,1,1762.0,1756.0,1755.0,1319.0,1740.0,1767.0,1763.0,1767.0,65.83806610107422,-46.09512710571289,-26.145193099975586,Left
4420.78955078125,126626,1,1768.0,1763.0,1755.0,1775.0,1749.0,1711.0,1758.0,1755.0,65.83806610107422,-46.09512710571289,-26.145193099975586,Left
4422.78955078125,126626,1,1746.0,1763.0,1757.0,2151.0,1749.0,1742.0,1763.0,1735.0,65.83806610107422,-46.09512710571289,-26.145193099975586,Left
4424.78955078125,126626,1,1743.0,1755.0,1755.0,2459.0,1743.0,1726.0,1763.0,1739.0,65.83806610107422,-46.09512710571289,-26.145193099975586,Left
4426.78955078125,126626,1,1757.0,1757.0,1756.0,2258.0,1749.0,1753.0,1762.0,1742.0,65.83806610107422,-46.09512710571289,-26.145193099975586,Left
4429.07666015625,126627,1,1772.0,1764.0,1756.0,1938.0,1756.0,1763.0,1763.0,1743.0,65.83806610107422,-46.09512710571289,-26.145193099975586,Left
4431.07666015625,126627,1,1751.0,1759.0,1757.0,1607.0,1741.0,1754.0,1757.0,1737.0,65.83806610107422,-46.09512710571289,-26.145193099975586,Left
4433.07666015625,126627,1,1746.0,1757.0,1755.0,1526.0,1748.0,1743.0,1759.0,1739.0,65.83806610107422,-46.09512710571289,-26.145193099975586,Left
4435.07666015625,126627,1,1747.0,1767.0,1755.0,1111.0,1755.0,1765.0,1763.0,1753.0,65.83806610107422,-46.09512710571289,-26.145193099975586,Left
4437.07666015625,126627,1,1750.0,1766.0,1757.0,877.0,1753.0,1756.0,1762.0,1740.0,65.83806610107422,-46.09512710571289,-26.145193099975586,Left
4439.03466796875,126628,1,1767.0,1756.0,1770.0,1164.0,1740.0,1752.0,1763.0,1743.0,65.83806610107422,-46.09512710571289,-26.145193099975586,Left
4441.03466796875,126628,1,1791.0,1756.0,1757.0,1727.0,1757.0,1771.0,1761.0,1756.0,65.83806610107422,-46.09512710571289,-26.145193099975586,Left
4443.03466796875,126628,1,1787.0,1758.0,1755.0,2200.0,1749.0,1765.0,1763.0,1749.0,65.83806610107422,-46.09512710571289,-26.145193099975586,Left
4445.03466796875,126628,1,1755.0,1753.0,1757.0,2137.0,1743.0,1719.0,1763.0,1741.0,65.6181640625,-45.69155502319336,-25.884159088134766,Left
4447.03466796875,126628,1,1756.0,1767.0,1757.0,2067.0,1752.0,1741.0,1759.0,1752.0,65.6181640625,-45.69155502319336,-25.884159088134766,Left
4452.47509765625,126629,1,1752.0,1764.0,1751.0,1819.0,1752.0,1735.0,1755.0,1743.0,65.6181640625,-45.69155502319336,-25.884159088134766,Left
4454.47509765625,126629,1,1735.0,1764.0,1758.0,1512.0,1739.0,1753.0,1762.0,1739.0,65.6181640625,-45.69155502319336,-25.884159088134766,Left
4456.47509765625,126629,1,1741.0,1765.0,1756.0,1381.0,1747.0,1775.0,1759.0,1737.0,65.6181640625,-45.69155502319336,-25.884159088134766,Left
4458.47509765625,126629,1,1763.0,1761.0,1758.0,1033.0,1749.0,1771.0,1759.0,1753.0,65.6181640625,-45.69155502319336,-25.884159088134766,Left
4460.47509765625,126629,1,1815.0,1769.0,1753.0,1076.0,1775.0,1757.0,1764.0,1763.0,65.6181640625,-45.69155502319336,-25.884159088134766,Left
4455.529296875,126630,1,1735.0,1755.0,1756.0,1444.0,1738.0,1725.0,1757.0,1737.0,65.6181640625,-45.69155502319336,-25.884159088134766,Left
4457.529296875,126630,1,1766.0,1763.0,1759.0,1995.0,1757.0,1711.0,1763.0,1639.0,65.6181640625,-45.69155502319336,-25.884159088134766,Left
4459.529296875,126630,1,1753.0,1757.0,1757.0,2412.0,1752.0,1747.0,1757.0,1574.0,65.6181640625,-45.69155502319336,-25.884159088134766,Left
4461.529296875,126630,1,1752.0,1759.0,1757.0,2535.0,1740.0,1759.0,1763.0,1575.0,65.6181640625,-45.69155502319336,-25.884159088134766,Left
4463.529296875,126630,1,1752.0,1759.0,1755.0,2343.0,1747.0,1773.0,1763.0,1621.0,65.6181640625,-45.69155502319336,-25.884159088134766,Left
4490.0810546875,126631,1,1753.0,1753.0,1757.0,1911.0,1751.0,1753.0,1762.0,1675.0,65.6181640625,-45.69155502319336,-25.884159088134766,Left
4492.0810546875,126631,1,1759.0,1763.0,1756.0,1551.0,1753.0,1741.0,1758.0,1717.0,65.6181640625,-45.69155502319336,-25.884159088134766,Left
4494.0810546875,126631,1,1769.0,1766.0,1756.0,1325.0,1753.0,1751.0,1759.0,1749.0,65.6181640625,-45.69155502319336,-25.884159088134766,Left
4496.0810546875,126631,1,1761.0,1765.0,1755.0,1049.0,1756.0,1757.0,1757.0,1759.0,65.6181640625,-45.69155502319336,-25.884159088134766,Left
4498.0810546875,126631,1,1758.0,1765.0,1756.0,1001.0,1752.0,1763.0,1757.0,1781.0,65.6181640625,-45.69155502319336,-25.884159088134766,Left
4491.07177734375,126632,1,1755.0,1753.0,1751.0,1401.0,1737.0,1737.0,1755.0,1776.0,65.6181640625,-45.69155502319336,-25.884159088134766,Left
4493.07177734375,126632,1,1752.0,1751.0,1756.0,2055.0,1746.0,1735.0,1759.0,1799.0,65.6181640625,-45.69155502319336,-25.884159088134766,Left
4495.07177734375,126632,1,1769.0,1757.0,1757.0,2219.0,1745.0,1747.0,1758.0,1789.0,65.6181640625,-45.69155502319336,-25.884159088134766,Left
4497.07177734375,126632,1,1756.0,1754.0,1755.0,2335.0,1741.0,1736.0,1759.0,1783.0,65.6181640625,-45.69155502319336,-25.884159088134766,Left
4499.07177734375,126632,1,1759.0,1761.0,1757.0,2427.0,1757.0,1746.0,1759.0,1787.0,65.6181640625,-45.69155502319336,-25.884159088134766,Left
4491.07177734375,126633,1,1752.0,1759.0,1749.0,2139.0,1749.0,1767.0,1761.0,1805.0,65.6181640625,-45.69155502319336,-25.884159088134766,Left
4493.07177734375,126633,1,1771.0,1759.0,1759.0,1945.0,1753.0,1753.0,1758.0,1791.0,65.6181640625,-45.69155502319336,-25.884159088134766,Left
4495.07177734375,126633,1,1751.0,1764.0,1757.0,1509.0,1758.0,1751.0,1763.0,1785.0,65.6181640625,-45.69155502319336,-25.884159088134766,Left
4497.07177734375,126633,1,1755.0,1765.0,1757.0,1141.0,1765.0,1753.0,1757.0,1774.0,65.6181640625,-45.69155502319336,-25.884159088134766,Left
4499.07177734375,126633,1,1751.0,1761.0,1756.0,997.0,1741.0,1751.0,1762.0,1771.0,65.6181640625,-45.69155502319336,-25.884159088134766,Left
4497.0673828125,126634,1,1765.0,1761.0,1755.0,1254.0,1752.0,1764.0,1763.0,1779.0,65.6181640625,-45.69155502319336,-25.884159088134766,Left
4499.0673828125,126634,1,1764.0,1757.0,1757.0,1708.0,1735.0,1770.0,1759.0,1771.0,65.6181640625,-45.69155502319336,-25.884159088134766,Left
4501.0673828125,126634,1,1753.0,1757.0,1755.0,1993.0,1750.0,1741.0,1757.0,1759.0,65.6181640625,-45.69155502319336,-25.884159088134766,Left
4503.0673828125,126634,1,1759.0,1755.0,1754.0,2159.0,1735.0,1718.0,1759.0,1779.0,65.6181640625,-45.69155502319336,-25.884159088134766,Left
4505.0673828125,126634,1,1749.0,1752.0,1755.0,2149.0,1726.0,1747.0,1757.0,1765.0,65.6181640625,-45.69155502319336,-25.884159088134766,Left
4506.38037109375,126635,1,1747.0,1763.0,1757.0,2023.0,1749.0,1725.0,1759.0,1765.0,65.6181640625,-45.69155502319336,-25.884159088134766,Left
4508.38037109375,126635,1,1767.0,1757.0,1754.0,1621.0,1761.0,1755.0,1758.0,1756.0,65.8080825805664,-45.51474380493164,-25.984294891357422,Left
4510.38037109375,126635,1,1767.0,1763.0,1757.0,1562.0,1775.0,1743.0,1758.0,1763.0,65.8080825805664,-45.51474380493164,-25.984294891357422,Left
4512.38037109375,126635,1,1781.0,1759.0,1757.0,1183.0,1768.0,1767.0,1757.0,1764.0,65.8080825805664,-45.51474380493164,-25.984294891357422,Left
4514.38037109375,126635,1,1747.0,1757.0,1755.0,1022.0,1727.0,1759.0,1759.0,1763.0,65.8080825805664,-45.51474380493164,-25.984294891357422,Left
4519.53662109375,126636,1,1767.0,1757.0,1749.0,1395.0,1753.0,1751.0,1758.0,1754.0,65.8080825805664,-45.51474380493164,-25.984294891357422,Left
4521.53662109375,126636,1,1762.0,1758.0,1756.0,2057.0,1770.0,1746.0,1759.0,1755.0,65.8080825805664,-45.51474380493164,-25.984294891357422,Left
4523.53662109375,126636,1,1770.0,1757.0,1757.0,2425.0,1764.0,1749.0,1759.0,1761.0,65.8080825805664,-45.51474380493164,-25.984294891357422,Left
4525.53662109375,126636,1,1747.0,1765.0,1755.0,2638.0,1728.0,1747.0,1759.0,1763.0,65.8080825805664,-45.51474380493164,-25.984294891357422,Left
4527.53662109375,126636,1,1737.0,1765.0,1757.0,2395.0,1739.0,1771.0,1762.0,1763.0,65.8080825805664,-45.51474380493164,-25.984294891357422,Left
4534.84619140625,126637,1,1726.0,1749.0,1755.0,2025.0,1737.0,1747.0,1750.0,1740.0,65.8080825805664,-45.51474380493164,-25.984294891357422,Left
4536.84619140625,126637,1,1757.0,1758.0,1761.0,1802.0,1748.0,1749.0,1762.0,1753.0,65.8080825805664,-45.51474380493164,-25.984294891357422,Left
4538.84619140625,126637,1,1805.0,1767.0,1759.0,1448.0,1805.0,1753.0,1758.0,1752.0,65.8080825805664,-45.51474380493164,-25.984294891357422,Left
4540.84619140625,126637,1,1749.0,1764.0,1757.0,1171.0,1749.0,1747.0,1757.0,1749.0,65.8080825805664,-45.51474380493164,-25.984294891357422,Left
4542.84619140625,126637,1,1751.0,1759.0,1759.0,1206.0,1749.0,1753.0,1759.0,1749.0,65.8080825805664,-45.51474380493164,-25.984294891357422,Left
4536.88525390625,126638,1,1753.0,1757.0,1752.0,1478.0,1749.0,1751.0,1763.0,1751.0,65.8080825805664,-45.51474380493164,-25.984294891357422,Left
4538.88525390625,126638,1,1763.0,1763.0,1755.0,1931.0,1741.0,1749.0,1759.0,1754.0,65.8080825805664,-45.51474380493164,-25.984294891357422,Left
4540.88525390625,126638,1,1748.0,1757.0,1756.0,2095.0,1740.0,1739.0,1757.0,1747.0,65.8080825805664,-45.51474380493164,-25.984294891357422,Left
4542.88525390625,126638,1,1755.0,1761.0,1756.0,2031.0,1747.0,1751.0,1762.0,1757.0,65.8080825805664,-45.51474380493164,-25.984294891357422,Left
4544.88525390625,126638,1,1757.0,1763.0,1755.0,2083.0,1752.0,1766.0,1759.0,1753.0,65.8080825805664,-45.51474380493164,-25.984294891357422,Left
4547.44580078125,126639,1,1757.0,1756.0,1752.0,1863.0,1748.0,1750.0,1758.0,1739.0,65.8080825805664,-45.51474380493164,-25.984294891357422,Left
4549.44580078125,126639,1,1755.0,1763.0,1753.0,1604.0,1751.0,1726.0,1761.0,1750.0,65.8080825805664,-45.51474380493164,-25.984294891357422,Left
4551.44580078125,126639,1,1753.0,1753.0,1757.0,1447.0,1753.0,1741.0,1759.0,1753.0,65.8080825805664,-45.51474380493164,-25.984294891357422,Left
4553.44580078125,126639,1,1757.0,1767.0,1757.0,1136.0,1755.0,1759.0,1754.0,1747.0,65.8080825805664,-45.51474380493164,-25.984294891357422,Left
4555.44580078125,126639,1,1749.0,1757.0,1755.0,1001.0,1749.0,1768.0,1756.0,1739.0,65.8080825805664,-45.51474380493164,-25.984294891357422,Left
4556.85888671875,126640,1,1751.0,1757.0,1747.0,1305.0,1723.0,1758.0,1740.0,1741.0,65.8080825805664,-45.51474380493164,-25.984294891357422,Left
4558.85888671875,126640,1,1755.0,1754.0,1757.0,1881.0,1741.0,1749.0,1762.0,1749.0,65.8080825805664,-45.51474380493164,-25.984294891357422,Left
4560.85888671875,126640,1,1753.0,1755.0,1755.0,2087.0,1745.0,1737.0,1762.0,1743.0,65.8080825805664,-45.51474380493164,-25.984294891357422,Left
4562.85888671875,126640,1,1757.0,1757.0,1757.0,2333.0,1751.0,1741.0,1757.0,1756.0,65.8080825805664,-45.51474380493164,-25.984294891357422,Left
4564.85888671875,126640,1,1774.0,1759.0,1759.0,2035.0,1753.0,1743.0,1763.0,1754.0,65.8080825805664,-45.51474380493164,-25.984294891357422,Left
4569.1875,126641,1,1755.0,1764.0,1749.0,1981.0,1755.0,1753.0,1761.0,1753.0,65.8080825805664,-45.51474380493164,-25.984294891357422,Left
4571.1875,126641,1,1763.0,1766.0,1753.0,1711.0,1757.0,1763.0,1763.0,1751.0,65.8080825805664,-45.51474380493164,-25.984294891357422,Left
4573.1875,126641,1,1752.0,1763.0,1754.0,1547.0,1751.0,1754.0,1763.0,1739.0,65.8080825805664,-45.51474380493164,-25.984294891357422,Left
4575.1875,126641,1,1754.0,1763.0,1759.0,1204.0,1753.0,1725.0,1762.0,1740.0,65.8080825805664,-45.51474380493164,-25.984294891357422,Left
4577.1875,126641,1,1751.0,1758.0,1757.0,1099.0,1746.0,1765.0,1759.0,1756.0,65.69800567626953,-45.666534423828125,-25.970417022705078,Left
4604.4814453125,126642,1,1765.0,1755.0,1757.0,1463.0,1749.0,1749.0,1747.0,1741.0,65.69800567626953,-45.666534423828125,-25.970417022705078,Left
4606.4814453125,126642,1,1766.0,1755.0,1757.0,2043.0,1749.0,1739.0,1763.0,1758.0,65.69800567626953,-45.666534423828125,-25.970417022705078,Left
4608.4814453125,126642,1,1764.0,1759.0,1755.0,2391.0,1751.0,1727.0,1763.0,1750.0,65.69800567626953,-45.666534423828125,-25.970417022705078,Left
4610.4814453125,126642,1,1765.0,1762.0,1757.0,2553.0,1746.0,1753.0,1761.0,1747.0,65.69800567626953,-45.666534423828125,-25.970417022705078,Left
4612.4814453125,126642,1,1753.0,1763.0,1754.0,2375.0,1738.0,1737.0,1758.0,1751.0,65.69800567626953,-45.666534423828125,-25.970417022705078,Left
4606.005859375,126643,1,1751.0,1756.0,1749.0,2264.0,1747.0,1757.0,1755.0,1739.0,65.69800567626953,-45.666534423828125,-25.970417022705078,Left
4608.005859375,126643,1,1742.0,1765.0,1755.0,2031.0,1769.0,1757.0,1759.0,1743.0,65.69800567626953,-45.666534423828125,-25.970417022705078,Left
4610.005859375,126643,1,1755.0,1763.0,1753.0,1688.0,1742.0,1751.0,1757.0,1747.0,65.69800567626953,-45.666534423828125,-25.970417022705078,Left
4612.005859375,126643,1,1763.0,1757.0,1757.0,1240.0,1749.0,1752.0,1762.0,1751.0,65.69800567626953,-45.666534423828125,-25.970417022705078,Left
4614.005859375,126643,1,1774.0,1759.0,1757.0,1198.0,1769.0,1753.0,1758.0,1751.0,65.69800567626953,-45.666534423828125,-25.970417022705078,Left
4606.005859375,126644,1,1753.0,1758.0,1757.0,1465.0,1735.0,1747.0,1759.0,1740.0,65.69800567626953,-45.666534423828125,-25.970417022705078,Left
4608.005859375,126644,1,1765.0,1754.0,1756.0,2059.0,1745.0,1753.0,1763.0,1751.0,65.69800567626953,-45.666534423828125,-25.970417022705078,Left
4610.005859375,126644,1,1743.0,1753.0,1756.0,2397.0,1746.0,1750.0,1761.0,1750.0,65.69800567626953,-45.666534423828125,-25.970417022705078,Left
4612.005859375,126644,1,1755.0,1759.0,1754.0,2469.0,1747.0,1756.0,1758.0,1752.0,65.69800567626953,-45.666534423828125,-25.970417022705078,Left
4614.005859375,126644,1,1763.0,1763.0,1753.0,2285.0,1749.0,1736.0,1763.0,1755.0,65.69800567626953,-45.666534423828125,-25.970417022705078,Left
4606.005859375,126645,1,1763.0,1747.0,1742.0,2089.0,1749.0,1741.0,1762.0,1745.0,65.69800567626953,-45.666534423828125,-25.970417022705078,Left
4608.005859375,126645,1,1756.0,1765.0,1772.0,1771.0,1753.0,1757.0,1758.0,1748.0,65.69800567626953,-45.666534423828125,-25.970417022705078,Left
4610.005859375,126645,1,1742.0,1764.0,1757.0,1518.0,1747.0,1770.0,1759.0,1743.0,65.69800567626953,-45.666534423828125,-25.970417022705078,Left
4612.005859375,126645,1,1753.0,1767.0,1754.0,1039.0,1753.0,1773.0,1758.0,1743.0,65.69800567626953,-45.666534423828125,-25.970417022705078,Left
4614.005859375,126645,1,1788.0,1765.0,1754.0,1071.0,1773.0,1748.0,1762.0,1753.0,65.69800567626953,-45.666534423828125,-25.970417022705078,Left
4619.765625,126646,1,1757.0,1758.0,1757.0,1263.0,1747.0,1736.0,1759.0,1745.0,65.69800567626953,-45.666534423828125,-25.970417022705078,Left
4621.765625,126646,1,1768.0,1752.0,1756.0,1711.0,1740.0,1748.0,1757.0,1752.0,65.69800567626953,-45.666534423828125,-25.970417022705078,Left
4623.765625,126646,1,1748.0,1755.0,1755.0,1938.0,1740.0,1747.0,1763.0,1747.0,65.69800567626953,-45.666534423828125,-25.970417022705078,Left
4625.765625,126646,1,1764.0,1757.0,1757.0,2099.0,1740.0,1754.0,1759.0,1747.0,65.69800567626953,-45.666534423828125,-25.970417022705078,Left
4627.765625,126646,1,1747.0,1755.0,1755.0,1978.0,1747.0,1740.0,1758.0,1747.0,65.69800567626953,-45.666534423828125,-25.970417022705078,Left
4628.84716796875,126647,1,1757.0,1763.0,1751.0,1999.0,1752.0,1753.0,1749.0,1747.0,65.69800567626953,-45.666534423828125,-25.970417022705078,Left
4630.84716796875,126647,1,1757.0,1751.0,1755.0,1735.0,1757.0,1743.0,1757.0,1746.0,65.69800567626953,-45.666534423828125,-25.970417022705078,Left
4632.84716796875,126647,1,1767.0,1763.0,1758.0,1548.0,1749.0,1753.0,1758.0,1746.0,65.69800567626953,-45.666534423828125,-25.970417022705078,Left
4634.84716796875,126647,1,1755.0,1759.0,1757.0,1112.0,1752.0,1763.0,1759.0,1751.0,65.69800567626953,-45.666534423828125,-25.970417022705078,Left
4636.84716796875,126647,1,1758.0,1764.0,1758.0,954.0,1749.0,1753.0,1763.0,1749.0,65.69800567626953,-45.666534423828125,-25.970417022705078,Left
4643.20556640625,126648,1,1757.0,1757.0,1757.0,1383.0,1751.0,1736.0,1759.0,1751.0,65.22811126708984,-45.705291748046875,-25.745899200439453,Left
4645.20556640625,126648,1,1763.0,1755.0,1757.0,1975.0,1740.0,1740.0,1759.0,1743.0,65.22811126708984,-45.705291748046875,-25.745899200439453,Left
4647.20556640625,126648,1,1754.0,1763.0,1755.0,2376.0,1746.0,1747.0,1758.0,1751.0,65.22811126708984,-45.705291748046875,-25.745899200439453,Left
4649.20556640625,126648,1,1763.0,1759.0,1755.0,2711.0,1749.0,1755.0,1763.0,1753.0,65.22811126708984,-45.705291748046875,-25.745899200439453,Left
4651.20556640625,126648,1,1757.0,1762.0,1755.0,2409.0,1753.0,1741.0,1759.0,1748.0,65.22811126708984,-45.705291748046875,-25.745899200439453,Left
4645.98876953125,126649,1,1753.0,1759.0,1751.0,2041.0,1753.0,1757.0,1759.0,1750.0,65.22811126708984,-45.705291748046875,-25.745899200439453,Left
4647.98876953125,126649,1,1753.0,1756.0,1755.0,1705.0,1753.0,1756.0,1762.0,1737.0,65.22811126708984,-45.705291748046875,-25.745899200439453,Left
4649.98876953125,126649,1,1753.0,1757.0,1756.0,1625.0,1748.0,1749.0,1759.0,1742.0,65.22811126708984,-45.705291748046875,-25.745899200439453,Left
4651.98876953125,126649,1,1759.0,1765.0,1756.0,1165.0,1752.0,1753.0,1759.0,1746.0,65.22811126708984,-45.705291748046875,-25.745899200439453,Left
4653.98876953125,126649,1,1757.0,1759.0,1763.0,1148.0,1753.0,1759.0,1762.0,1752.0,65.22811126708984,-45.705291748046875,-25.745899200439453,Left
4661.1220703125,126650,1,1773.0,1752.0,1755.0,1579.0,1761.0,1749.0,1763.0,1751.0,65.22811126708984,-45.705291748046875,-25.745899200439453,Left
4663.1220703125,126650,1,1757.0,1755.0,1757.0,2024.0,1743.0,1750.0,1762.0,1751.0,65.22811126708984,-45.705291748046875,-25.745899200439453,Left
4665.1220703125,126650,1,1756.0,1757.0,1757.0,2223.0,1741.0,1740.0,1757.0,1755.0,65.22811126708984,-45.705291748046875,-25.745899200439453,Left
4667.1220703125,126650,1,1753.0,1761.0,1759.0,2446.0,1747.0,1748.0,1763.0,1753.0,65.22811126708984,-45.705291748046875,-25.745899200439453,Left
4669.1220703125,126650,1,1753.0,1759.0,1755.0,2189.0,1740.0,1753.0,1763.0,1745.0,65.22811126708984,-45.705291748046875,-25.745899200439453,Left
4667.9814453125,126651,1,1755.0,1755.0,1756.0,1820.0,1755.0,1753.0,1757.0,1737.0,65.22811126708984,-45.705291748046875,-25.745899200439453,Left
4669.9814453125,126651,1,1759.0,1768.0,1755.0,1578.0,1765.0,1763.0,1763.0,1748.0,65.22811126708984,-45.705291748046875,-25.745899200439453,Left
4671.9814453125,126651,1,1753.0,1765.0,1763.0,1477.0,1755.0,1752.0,1764.0,1751.0,65.22811126708984,-45.705291748046875,-25.745899200439453,Left
4673.9814453125,126651,1,1769.0,1765.0,1753.0,1215.0,1783.0,1735.0,1757.0,1755.0,65.22811126708984,-45.705291748046875,-25.745899200439453,Left
4675.9814453125,126651,1,1769.0,1767.0,1763.0,1198.0,1753.0,1752.0,1761.0,1755.0,65.22811126708984,-45.705291748046875,-25.745899200439453,Left
4677.87451171875,126652,1,1751.0,1749.0,1757.0,1427.0,1737.0,1757.0,1749.0,1727.0,65.22811126708984,-45.705291748046875,-25.745899200439453,Left
4679.87451171875,126652,1,1767.0,1757.0,1755.0,1883.0,1741.0,1755.0,1758.0,1749.0,65.22811126708984,-45.705291748046875,-25.745899200439453,Left
4681.87451171875,126652,1,1763.0,1759.0,1757.0,2133.0,1743.0,1741.0,1762.0,1747.0,65.22811126708984,-45.705291748046875,-25.745899200439453,Left
4683.87451171875,126652,1,1756.0,1756.0,1756.0,2216.0,1751.0,1743.0,1759.0,1740.0,65.22811126708984,-45.705291748046875,-25.745899200439453,Left
4685.87451171875,126652,1,1757.0,1759.0,1757.0,2115.0,1753.0,1733.0,1758.0,1741.0,65.22811126708984,-45.705291748046875,-25.745899200439453,Left
4687.17578125,126653,1,1758.0,1756.0,1754.0,1883.0,1753.0,1743.0,1757.0,1742.0,65.22811126708984,-45.705291748046875,-25.745899200439453,Left
4689.17578125,126653,1,1768.0,1763.0,1757.0,1561.0,1755.0,1754.0,1763.0,1755.0,65.22811126708984,-45.705291748046875,-25.745899200439453,Left
4691.17578125,126653,1,1765.0,1757.0,1755.0,1450.0,1753.0,1753.0,1761.0,1749.0,65.22811126708984,-45.705291748046875,-25.745899200439453,Left
4693.17578125,126653,1,1757.0,1763.0,1757.0,1059.0,1754.0,1768.0,1759.0,1750.0,65.22811126708984,-45.705291748046875,-25.745899200439453,Left
4695.17578125,126653,1,1754.0,1762.0,1757.0,935.0,1751.0,1755.0,1757.0,1753.0,65.22811126708984,-45.705291748046875,-25.745899200439453,Left
4695.66552734375,126654,1,1759.0,1757.0,1751.0,1371.0,1749.0,1749.0,1763.0,1747.0,65.22811126708984,-45.705291748046875,-25.745899200439453,Left
4697.66552734375,126654,1,1757.0,1759.0,1753.0,1946.0,1737.0,1756.0,1758.0,1741.0,65.22811126708984,-45.705291748046875,-25.745899200439453,Left
4699.66552734375,126654,1,1760.0,1759.0,1755.0,2185.0,1749.0,1743.0,1757.0,1751.0,65.22811126708984,-45.705291748046875,-25.745899200439453,Left
4701.66552734375,126654,1,1763.0,1765.0,1753.0,2300.0,1747.0,1753.0,1763.0,1756.0,65.35128784179688,-45.75336456298828,-25.540163040161133,Left
4703.66552734375,126654,1,1754.0,1763.0,1759.0,2133.0,1751.0,1738.0,1763.0,1752.0,65.35128784179688,-45.75336456298828,-25.540163040161133,Left
4723.42626953125,126655,1,1755.0,1748.0,1755.0,1993.0,1751.0,1765.0,1757.0,1747.0,65.35128784179688,-45.75336456298828,-25.540163040161133,Left
4725.42626953125,126655,1,1767.0,1769.0,1757.0,1695.0,1759.0,1759.0,1763.0,1751.0,65.35128784179688,-45.75336456298828,-25.540163040161133,Left
4727.42626953125,126655,1,1754.0,1759.0,1755.0,1515.0,1755.0,1749.0,1755.0,1745.0,65.35128784179688,-45.75336456298828,-25.540163040161133,Left
4729.42626953125,126655,1,1749.0,1763.0,1756.0,1087.0,1759.0,1756.0,1759.0,1751.0,65.35128784179688,-45.75336456298828,-25.540163040161133,Left
4731.42626953125,126655,1,1756.0,1763.0,1751.0,1046.0,1749.0,1753.0,1763.0,1749.0,65.35128784179688,-45.75336456298828,-25.540163040161133,Left
4723.42626953125,126656,1,1761.0,1759.0,1751.0,1351.0,1741.0,1755.0,1757.0,1748.0,65.35128784179688,-45.75336456298828,-25.540163040161133,Left
4725.42626953125,126656,1,1753.0,1753.0,1759.0,1848.0,1743.0,1759.0,1761.0,1757.0,65.35128784179688,-45.75336456298828,-25.540163040161133,Left
4727.42626953125,126656,1,1756.0,1753.0,1754.0,2175.0,1751.0,1737.0,1759.0,1750.0,65.35128784179688,-45.75336456298828,-25.540163040161133,Left
4729.42626953125,126656,1,1764.0,1757.0,1758.0,2269.0,1743.0,1721.0,1759.0,1750.0,65.35128784179688,-45.75336456298828,-25.540163040161133,Left
4731.42626953125,126656,1,1757.0,1763.0,1757.0,2087.0,1753.0,1754.0,1763.0,1750.0,65.35128784179688,-45.75336456298828,-25.540163040161133,Left
4726.427734375,126657,1,1753.0,1757.0,1753.0,2011.0,1752.0,1759.0,1759.0,1741.0,65.35128784179688,-45.75336456298828,-25.540163040161133,Left
4728.427734375,126657,1,1749.0,1758.0,1756.0,1803.0,1753.0,1768.0,1759.0,1737.0,65.35128784179688,-45.75336456298828,-25.540163040161133,Left
4730.427734375,126657,1,1755.0,1757.0,1758.0,1693.0,1749.0,1761.0,1763.0,1749.0,65.35128784179688,-45.75336456298828,-25.540163040161133,Left
4732.427734375,126657,1,1762.0,1764.0,1755.0,1327.0,1752.0,1737.0,1762.0,1754.0,65.35128784179688,-45.75336456298828,-25.540163040161133,Left
4734.427734375,126657,1,1770.0,1759.0,1758.0,1269.0,1757.0,1759.0,1757.0,1764.0,65.35128784179688,-45.75336456298828,-25.540163040161133,Left
4738.3740234375,126658,1,1751.0,1774.0,1748.0,1437.0,1747.0,1735.0,1759.0,1739.0,65.35128784179688,-45.75336456298828,-25.540163040161133,Left
4740.3740234375,126658,1,1751.0,1755.0,1756.0,1895.0,1743.0,1735.0,1756.0,1747.0,65.35128784179688,-45.75336456298828,-25.540163040161133,Left
4742.3740234375,126658,1,1783.0,1756.0,1757.0,2163.0,1759.0,1742.0,1757.0,1763.0,65.35128784179688,-45.75336456298828,-25.540163040161133,Left
4744.3740234375,126658,1,1755.0,1763.0,1755.0,2343.0,1747.0,1757.0,1761.0,1751.0,65.35128784179688,-45.75336456298828,-25.540163040161133,Left
4746.3740234375,126658,1,1753.0,1764.0,1757.0,2261.0,1751.0,1767.0,1759.0,1749.0,65.35128784179688,-45.75336456298828,-25.540163040161133,Left
4751.76318359375,126659,1,1753.0,1759.0,1749.0,2070.0,1753.0,1755.0,1758.0,1751.0,65.35128784179688,-45.75336456298828,-25.540163040161133,Left
4753.76318359375,126659,1,1759.0,1766.0,1756.0,1863.0,1757.0,1762.0,1762.0,1747.0,65.35128784179688,-45.75336456298828,-25.540163040161133,Left
4755.76318359375,126659,1,1749.0,1757.0,1757.0,1628.0,1753.0,1747.0,1763.0,1735.0,65.35128784179688,-45.75336456298828,-25.540163040161133,Left
4757.76318359375,126659,1,1753.0,1763.0,1756.0,1215.0,1752.0,1759.0,1757.0,1743.0,65.35128784179688,-45.75336456298828,-25.540163040161133,Left
4759.76318359375,126659,1,1763.0,1763.0,1754.0,1097.0,1767.0,1769.0,1763.0,1756.0,65.35128784179688,-45.75336456298828,-25.540163040161133,Left
4761.7626953125,126660,1,1771.0,1767.0,1749.0,1309.0,1767.0,1754.0,1757.0,1749.0,65.35128784179688,-45.75336456298828,-25.540163040161133,Left
4763.7626953125,126660,1,1757.0,1763.0,1755.0,1805.0,1748.0,1743.0,1756.0,1751.0,65.35128784179688,-45.75336456298828,-25.540163040161133,Left
4765.7626953125,126660,1,1756.0,1757.0,1759.0,2215.0,1741.0,1700.0,1763.0,1737.0,65.35128784179688,-45.75336456298828,-25.540163040161133,Left
4767.7626953125,126660,1,1751.0,1763.0,1757.0,2392.0,1747.0,1741.0,1757.0,1748.0,65.35128784179688,-45.75336456298828,-25.540163040161133,Left
4769.7626953125,126660,1,1753.0,1757.0,1758.0,2303.0,1745.0,1752.0,1763.0,1747.0,65.35128784179688,-45.75336456298828,-25.540163040161133,Left
4769.20263671875,126661,1,1767.0,1763.0,1756.0,2092.0,1752.0,1740.0,1759.0,1749.0,65.35128784179688,-45.75336456298828,-25.540163040161133,Left
4771.20263671875,126661,1,1762.0,1766.0,1759.0,1827.0,1757.0,1751.0,1763.0,1748.0,65.06041717529297,-45.78195571899414,-25.413442611694336,Left
4773.20263671875,126661,1,1750.0,1759.0,1757.0,1513.0,1747.0,1751.0,1757.0,1739.0,65.06041717529297,-45.78195571899414,-25.413442611694336,Left
4775.20263671875,126661,1,1751.0,1759.0,1739.0,1383.0,1747.0,1758.0,1764.0,1743.0,65.06041717529297,-45.78195571899414,-25.413442611694336,Left
4777.20263671875,126661,1,1755.0,1761.0,1755.0,1293.0,1748.0,1762.0,1759.0,1747.0,65.06041717529297,-45.78195571899414,-25.413442611694336,Left
4779.7890625,126662,1,1763.0,1758.0,1763.0,1383.0,1749.0,1770.0,1757.0,1757.0,65.06041717529297,-45.78195571899414,-25.413442611694336,Left
4781.7890625,126662,1,1769.0,1765.0,1757.0,2152.0,1747.0,1751.0,1758.0,1765.0,65.06041717529297,-45.78195571899414,-25.413442611694336,Left
4783.7890625,126662,1,1757.0,1763.0,1758.0,2341.0,1743.0,1751.0,1759.0,1748.0,65.06041717529297,-45.78195571899414,-25.413442611694336,Left
4785.7890625,126662,1,1775.0,1753.0,1757.0,2479.0,1749.0,1742.0,1759.0,1746.0,65.06041717529297,-45.78195571899414,-25.413442611694336,Left
4787.7890625,126662,1,1755.0,1757.0,1755.0,2028.0,1751.0,1755.0,1758.0,1751.0,65.06041717529297,-45.78195571899414,-25.413442611694336,Left
4786.73095703125,126663,1,1755.0,1749.0,1752.0,1843.0,1751.0,1755.0,1757.0,1745.0,65.06041717529297,-45.78195571899414,-25.413442611694336,Left
4788.73095703125,126663,1,1749.0,1758.0,1756.0,1579.0,1747.0,1769.0,1758.0,1739.0,65.06041717529297,-45.78195571899414,-25.413442611694336,Left
4790.73095703125,126663,1,1756.0,1757.0,1757.0,1277.0,1751.0,1756.0,1759.0,1743.0,65.06041717529297,-45.78195571899414,-25.413442611694336,Left
4792.73095703125,126663,1,1758.0,1766.0,1755.0,991.0,1755.0,1749.0,1759.0,1753.0,65.06041717529297,-45.78195571899414,-25.413442611694336,Left
4794.73095703125,126663,1,1763.0,1765.0,1755.0,1097.0,1755.0,1748.0,1759.0,1756.0,65.06041717529297,-45.78195571899414,-25.413442611694336,Left
4797.76904296875,126664,1,1769.0,1763.0,1756.0,1389.0,1751.0,1741.0,1757.0,1751.0,65.06041717529297,-45.78195571899414,-25.413442611694336,Left
4799.76904296875,126664,1,1749.0,1755.0,1749.0,1944.0,1737.0,1717.0,1759.0,1741.0,65.06041717529297,-45.78195571899414,-25.413442611694336,Left
4801.76904296875,126664,1,1756.0,1757.0,1757.0,2233.0,1747.0,1747.0,1757.0,1749.0,65.06041717529297,-45.78195571899414,-25.413442611694336,Left
4803.76904296875,126664,1,1755.0,1754.0,1756.0,2310.0,1747.0,1754.0,1759.0,1749.0,65.06041717529297,-45.78195571899414,-25.413442611694336,Left
4805.76904296875,126664,1,1757.0,1764.0,1757.0,2249.0,1743.0,1755.0,1757.0,1752.0,65.06041717529297,-45.78195571899414,-25.413442611694336,Left
4808.8583984375,126665,1,1751.0,1753.0,1751.0,1959.0,1740.0,1755.0,1757.0,1745.0,65.06041717529297,-45.78195571899414,-25.413442611694336,Left
4810.8583984375,126665,1,1761.0,1763.0,1756.0,1627.0,1758.0,1764.0,1759.0,1755.0,65.06041717529297,-45.78195571899414,-25.413442611694336,Left
4812.8583984375,126665,1,1768.0,1759.0,1754.0,1443.0,1755.0,1766.0,1757.0,1755.0,65.06041717529297,-45.78195571899414,-25.413442611694336,Left
4814.8583984375,126665,1,1765.0,1767.0,1753.0,1117.0,1756.0,1757.0,1763.0,1752.0,65.06041717529297,-45.78195571899414,-25.413442611694336,Left
4816.8583984375,126665,1,1759.0,1758.0,1756.0,909.0,1753.0,1749.0,1763.0,1737.0,65.06041717529297,-45.78195571899414,-25.413442611694336,Left
4855.80810546875,126666,1,1753.0,1755.0,1757.0,1331.0,1750.0,1747.0,1759.0,1749.0,65.06041717529297,-45.78195571899414,-25.413442611694336,Left
4857.80810546875,126666,1,1757.0,1757.0,1755.0,1928.0,1741.0,1769.0,1759.0,1749.0,65.06041717529297,-45.78195571899414,-25.413442611694336,Left
4859.80810546875,126666,1,1751.0,1759.0,1757.0,2344.0,1741.0,1750.0,1763.0,1749.0,65.06041717529297,-45.78195571899414,-25.413442611694336,Left
4861.80810546875,126666,1,1757.0,1757.0,1757.0,2527.0,1751.0,1741.0,1757.0,1741.0,65.06041717529297,-45.78195571899414,-25.413442611694336,Left
4863.80810546875,126666,1,1757.0,1763.0,1756.0,2414.0,1752.0,1735.0,1761.0,1745.0,65.06041717529297,-45.78195571899414,-25.413442611694336,Left
4855.80810546875,126667,1,1756.0,1752.0,1759.0,2163.0,1741.0,1756.0,1761.0,1747.0,65.06041717529297,-45.78195571899414,-25.413442611694336,Left
4857.80810546875,126667,1,1771.0,1763.0,1755.0,1770.0,1753.0,1770.0,1763.0,1757.0,65.06041717529297,-45.78195571899414,-25.413442611694336,Left
4859.80810546875,126667,1,1755.0,1759.0,1757.0,1445.0,1750.0,1755.0,1759.0,1745.0,65.06041717529297,-45.78195571899414,-25.413442611694336,Left
4861.80810546875,126667,1,1755.0,1753.0,1755.0,1178.0,1757.0,1754.0,1762.0,1747.0,65.05199432373047,-45.631412506103516,-25.383285522460938,Left
4863.80810546875,126667,1,1755.0,1768.0,1755.0,1108.0,1753.0,1751.0,1763.0,1753.0,65.05199432373047,-45.631412506103516,-25.383285522460938,Left
4855.80810546875,126668,1,1766.0,1767.0,1757.0,1528.0,1763.0,1753.0,1763.0,1754.0,65.05199432373047,-45.631412506103516,-25.383285522460938,Left
4857.80810546875,126668,1,1773.0,1763.0,1755.0,2021.0,1749.0,1745.0,1763.0,1741.0,65.05199432373047,-45.631412506103516,-25.383285522460938,Left
4859.80810546875,126668,1,1753.0,1753.0,1757.0,2325.0,1743.0,1749.0,1759.0,1737.0,65.05199432373047,-45.631412506103516,-25.383285522460938,Left
4861.80810546875,126668,1,1752.0,1756.0,1755.0,2413.0,1740.0,1754.0,1757.0,1746.0,65.05199432373047,-45.631412506103516,-25.383285522460938,Left
4863.80810546875,126668,1,1753.0,1761.0,1756.0,2303.0,1752.0,1747.0,1759.0,1751.0,65.05199432373047,-45.631412506103516,-25.383285522460938,Left
4856.81103515625,126669,1,1757.0,1762.0,1757.0,1967.0,1756.0,1763.0,1751.0,1755.0,65.05199432373047,-45.631412506103516,-25.383285522460938,Left
4858.81103515625,126669,1,1765.0,1765.0,1757.0,1693.0,1749.0,1763.0,1761.0,1765.0,65.05199432373047,-45.631412506103516,-25.383285522460938,Left
4860.81103515625,126669,1,1763.0,1763.0,1759.0,1506.0,1752.0,1758.0,1759.0,1743.0,65.05199432373047,-45.631412506103516,-25.383285522460938,Left
4862.81103515625,126669,1,1755.0,1763.0,1755.0,1209.0,1767.0,1747.0,1763.0,1747.0,65.05199432373047,-45.631412506103516,-25.383285522460938,Left
4864.81103515625,126669,1,1764.0,1759.0,1757.0,1207.0,1756.0,1725.0,1759.0,1741.0,65.05199432373047,-45.631412506103516,-25.383285522460938,Left
4862.79296875,126670,1,1753.0,1757.0,1757.0,1456.0,1742.0,1739.0,1759.0,1753.0,65.05199432373047,-45.631412506103516,-25.383285522460938,Left
4864.79296875,126670,1,1757.0,1752.0,1758.0,2140.0,1752.0,1723.0,1761.0,1751.0,65.05199432373047,-45.631412506103516,-25.383285522460938,Left
4866.79296875,126670,1,1762.0,1765.0,1756.0,2455.0,1743.0,1757.0,1763.0,1740.0,65.05199432373047,-45.631412506103516,-25.383285522460938,Left
4868.79296875,126670,1,1741.0,1751.0,1755.0,2641.0,1723.0,1753.0,1759.0,1749.0,65.05199432373047,-45.631412506103516,-25.383285522460938,Left
4870.79296875,126670,1,1768.0,1767.0,1763.0,2254.0,1757.0,1770.0,1763.0,1755.0,65.05199432373047,-45.631412506103516,-25.383285522460938,Left
4865.7939453125,126671,1,1751.0,1762.0,1757.0,1887.0,1749.0,1755.0,1757.0,1736.0,65.05199432373047,-45.631412506103516,-25.383285522460938,Left
4867.7939453125,126671,1,1752.0,1759.0,1756.0,1708.0,1741.0,1753.0,1759.0,1747.0,65.05199432373047,-45.631412506103516,-25.383285522460938,Left
4869.7939453125,126671,1,1757.0,1757.0,1755.0,1515.0,1763.0,1763.0,1759.0,1757.0,65.05199432373047,-45.631412506103516,-25.383285522460938,Left
4871.7939453125,126671,1,1761.0,1767.0,1753.0,1128.0,1757.0,1751.0,1763.0,1753.0,65.05199432373047,-45.631412506103516,-25.383285522460938,Left
4873.7939453125,126671,1,1757.0,1764.0,1753.0,975.0,1756.0,1747.0,1759.0,1755.0,65.05199432373047,-45.631412506103516,-25.383285522460938,Left
4875.74365234375,126672,1,1755.0,1755.0,1757.0,1239.0,1748.0,1716.0,1750.0,1742.0,65.05199432373047,-45.631412506103516,-25.383285522460938,Left
4877.74365234375,126672,1,1755.0,1757.0,1761.0,1939.0,1743.0,1748.0,1763.0,1741.0,65.05199432373047,-45.631412506103516,-25.383285522460938,Left
4879.74365234375,126672,1,1747.0,1756.0,1761.0,2173.0,1741.0,1757.0,1759.0,1755.0,65.05199432373047,-45.631412506103516,-25.383285522460938,Left
4881.74365234375,126672,1,1755.0,1762.0,1757.0,2249.0,1747.0,1753.0,1763.0,1747.0,65.05199432373047,-45.631412506103516,-25.383285522460938,Left
4883.74365234375,126672,1,1745.0,1763.0,1758.0,2035.0,1759.0,1748.0,1763.0,1752.0,65.05199432373047,-45.631412506103516,-25.383285522460938,Left
4889.24072265625,126673,1,1769.0,1763.0,1755.0,1926.0,1749.0,1746.0,1759.0,1741.0,65.05199432373047,-45.631412506103516,-25.383285522460938,Left
4891.24072265625,126673,1,1763.0,1757.0,1757.0,1710.0,1751.0,1755.0,1762.0,1746.0,65.05199432373047,-45.631412506103516,-25.383285522460938,Left
4893.24072265625,126673,1,1759.0,1763.0,1755.0,1463.0,1751.0,1763.0,1759.0,1749.0,65.05199432373047,-45.631412506103516,-25.383285522460938,Left
4895.24072265625,126673,1,1766.0,1767.0,1755.0,993.0,1765.0,1763.0,1759.0,1761.0,65.05199432373047,-45.631412506103516,-25.383285522460938,Left
4897.24072265625,126673,1,1763.0,1763.0,1758.0,999.0,1756.0,1749.0,1759.0,1748.0,65.05199432373047,-45.631412506103516,-25.383285522460938,Left
4896.9326171875,126674,1,1750.0,1753.0,1749.0,1179.0,1747.0,1749.0,1757.0,1745.0,65.05199432373047,-45.631412506103516,-25.383285522460938,Left
4898.9326171875,126674,1,1753.0,1756.0,1757.0,1855.0,1741.0,1736.0,1761.0,1740.0,65.20352935791016,-45.539859771728516,-25.4527587890625,Left
4900.9326171875,126674,1,1750.0,1757.0,1758.0,2089.0,1745.0,1739.0,1759.0,1748.0,65.20352935791016,-45.539859771728516,-25.4527587890625,Left
4902.9326171875,126674,1,1756.0,1759.0,1755.0,2415.0,1751.0,1753.0,1759.0,1751.0,65.20352935791016,-45.539859771728516,-25.4527587890625,Left
4904.9326171875,126674,1,1765.0,1767.0,1756.0,2403.0,1756.0,1759.0,1759.0,1756.0,65.20352935791016,-45.539859771728516,-25.4527587890625,Left
4906.9228515625,126675,1,1749.0,1755.0,1755.0,2031.0,1738.0,1751.0,1764.0,1743.0,65.20352935791016,-45.539859771728516,-25.4527587890625,Left
4908.9228515625,126675,1,1763.0,1763.0,1756.0,1684.0,1755.0,1750.0,1762.0,1747.0,65.20352935791016,-45.539859771728516,-25.4527587890625,Left
4910.9228515625,126675,1,1755.0,1763.0,1753.0,1465.0,1753.0,1741.0,1759.0,1743.0,65.20352935791016,-45.539859771728516,-25.4527587890625,Left
4912.9228515625,126675,1,1763.0,1764.0,1755.0,1072.0,1757.0,1747.0,1763.0,1746.0,65.20352935791016,-45.539859771728516,-25.4527587890625,Left
4914.9228515625,126675,1,1768.0,1767.0,1754.0,1165.0,1758.0,1757.0,1763.0,1752.0,65.20352935791016,-45.539859771728516,-25.4527587890625,Left
4920.46630859375,126676,1,1758.0,1751.0,1747.0,1487.0,1743.0,1747.0,1757.0,1752.0,65.20352935791016,-45.539859771728516,-25.4527587890625,Left
4922.46630859375,126676,1,1753.0,1763.0,1758.0,1993.0,1735.0,1755.0,1757.0,1746.0,65.20352935791016,-45.539859771728516,-25.4527587890625,Left
4924.46630859375,126676,1,1752.0,1755.0,1759.0,2195.0,1758.0,1759.0,1763.0,1757.0,65.20352935791016,-45.539859771728516,-25.4527587890625,Left
4926.46630859375,126676,1,1761.0,1763.0,1759.0,2415.0,1751.0,1768.0,1759.0,1754.0,65.20352935791016,-45.539859771728516,-25.4527587890625,Left
4928.46630859375,126676,1,1752.0,1756.0,1758.0,2376.0,1749.0,1752.0,1763.0,1743.0,65.20352935791016,-45.539859771728516,-25.4527587890625,Left
4928.1396484375,126677,1,1753.0,1764.0,1756.0,1990.0,1747.0,1743.0,1757.0,1746.0,65.20352935791016,-45.539859771728516,-25.4527587890625,Left
4930.1396484375,126677,1,1759.0,1758.0,1756.0,1775.0,1753.0,1715.0,1763.0,1751.0,65.20352935791016,-45.539859771728516,-25.4527587890625,Left
4932.1396484375,126677,1,1767.0,1767.0,1755.0,1590.0,1755.0,1733.0,1763.0,1747.0,65.20352935791016,-45.539859771728516,-25.4527587890625,Left
4934.1396484375,126677,1,1753.0,1764.0,1756.0,1252.0,1757.0,1768.0,1761.0,1748.0,65.20352935791016,-45.539859771728516,-25.4527587890625,Left
