Timestamp_ms,Packet_Number,Trial_ID,Ch1,Ch2,Ch3,Ch4,Ch5,Ch6,Ch7,Ch8,Ch9,Ch10,Ch11,Label
1962.8348388671875,133725,1,1734.0,1745.0,1675.0,1655.0,1755.0,1753.0,1762.0,1743.0,64.40050506591797,18.896379470825195,-76.4496841430664,Left
1964.8348388671875,133725,1,1741.0,1757.0,1684.0,1799.0,1755.0,1753.0,1762.0,1749.0,62.62784194946289,19.37761688232422,-79.26799011230469,Left
1966.8348388671875,133725,1,1764.0,1755.0,1751.0,1799.0,1755.0,1753.0,1765.0,1749.0,62.62784194946289,19.37761688232422,-79.26799011230469,Left
1968.8348388671875,133725,1,1775.0,1757.0,1785.0,1751.0,1751.0,1753.0,1759.0,1748.0,62.62784194946289,19.37761688232422,-79.26799011230469,Left
1970.8348388671875,133725,1,1785.0,1754.0,1789.0,1723.0,1743.0,1753.0,1763.0,1757.0,62.62784194946289,19.37761688232422,-79.26799011230469,Left
1973.9959716796875,133726,1,1784.0,1759.0,1811.0,1701.0,1752.0,1753.0,1759.0,1763.0,62.62784194946289,19.37761688232422,-79.26799011230469,Left
1975.9959716796875,133726,1,1779.0,1753.0,1805.0,1695.0,1757.0,1752.0,1759.0,1769.0,62.62784194946289,19.37761688232422,-79.26799011230469,Left
1977.9959716796875,133726,1,1765.0,1755.0,1807.0,1771.0,1751.0,1755.0,1765.0,1737.0,62.62784194946289,19.37761688232422,-79.26799011230469,Left
1979.9959716796875,133726,1,1748.0,1753.0,1717.0,1823.0,1748.0,1753.0,1763.0,1741.0,62.62784194946289,19.37761688232422,-79.26799011230469,Left
1981.9959716796875,133726,1,1736.0,1755.0,1704.0,1843.0,1753.0,1752.0,1757.0,1736.0,62.62784194946289,19.37761688232422,-79.26799011230469,Left
1986.6868896484375,133727,1,1727.0,1757.0,1741.0,1781.0,1751.0,1752.0,1763.0,1754.0,62.62784194946289,19.37761688232422,-79.26799011230469,Left
1988.6868896484375,133727,1,1741.0,1757.0,1783.0,1792.0,1752.0,1753.0,1763.0,1750.0,62.62784194946289,19.37761688232422,-79.26799011230469,Left
1990.6868896484375,133727,1,1763.0,1751.0,1785.0,1787.0,1752.0,1753.0,1763.0,1747.0,62.62784194946289,19.37761688232422,-79.26799011230469,Left
1992.6868896484375,133727,1,1778.0,1756.0,1779.0,1709.0,1753.0,1754.0,1759.0,1748.0,62.62784194946289,19.37761688232422,-79.26799011230469,Left
1994.6868896484375,133727,1,1785.0,1755.0,1679.0,1764.0,1753.0,1753.0,1763.0,1749.0,62.62784194946289,19.37761688232422,-79.26799011230469,Left
1992.7928466796875,133728,1,1783.0,1756.0,1783.0,1790.0,1752.0,1752.0,1763.0,1756.0,62.62784194946289,19.37761688232422,-79.26799011230469,Left
1994.7928466796875,133728,1,1779.0,1757.0,1791.0,1784.0,1749.0,1751.0,1762.0,1751.0,62.62784194946289,19.37761688232422,-79.26799011230469,Left
1996.7928466796875,133728,1,1764.0,1761.0,1685.0,1813.0,1751.0,1754.0,1763.0,1747.0,62.62784194946289,19.37761688232422,-79.26799011230469,Left
1998.7928466796875,133728,1,1751.0,1754.0,1782.0,1746.0,1750.0,1753.0,1762.0,1754.0,62.62784194946289,19.37761688232422,-79.26799011230469,Left
2000.7928466796875,133728,1,1739.0,1757.0,1775.0,1853.0,1751.0,1753.0,1765.0,1755.0,62.62784194946289,19.37761688232422,-79.26799011230469,Left
2002.4189453125,133729,1,1736.0,1755.0,1774.0,1788.0,1753.0,1752.0,1763.0,1752.0,62.62784194946289,19.37761688232422,-79.26799011230469,Left
2004.4189453125,133729,1,1742.0,1755.0,1737.0,1804.0,1752.0,1753.0,1765.0,1742.0,62.62784194946289,19.37761688232422,-79.26799011230469,Left
2006.4189453125,133729,1,1763.0,1753.0,1727.0,1805.0,1751.0,1753.0,1763.0,1749.0,62.62784194946289,19.37761688232422,-79.26799011230469,Left
2008.4189453125,133729,1,1779.0,1753.0,1773.0,1848.0,1749.0,1753.0,1764.0,1754.0,62.62784194946289,19.37761688232422,-79.26799011230469,Left
2010.4189453125,133729,1,1785.0,1755.0,1807.0,1790.0,1753.0,1753.0,1759.0,1749.0,62.62784194946289,19.37761688232422,-79.26799011230469,Left
2014.3408203125,133730,1,1787.0,1751.0,1768.0,1813.0,1757.0,1754.0,1763.0,1739.0,62.62784194946289,19.37761688232422,-79.26799011230469,Left
2016.3408203125,133730,1,1775.0,1756.0,1709.0,1802.0,1748.0,1752.0,1763.0,1749.0,62.62784194946289,19.37761688232422,-79.26799011230469,Left
2018.3408203125,133730,1,1765.0,1755.0,1776.0,1814.0,1755.0,1750.0,1764.0,1756.0,62.62784194946289,19.37761688232422,-79.26799011230469,Left
2020.3408203125,133730,1,1747.0,1756.0,1741.0,1710.0,1752.0,1754.0,1763.0,1763.0,62.62784194946289,19.37761688232422,-79.26799011230469,Left
2022.3408203125,133730,1,1737.0,1755.0,1720.0,1768.0,1749.0,1755.0,1763.0,1754.0,62.62784194946289,19.37761688232422,-79.26799011230469,Left
2024.9700927734375,133731,1,1727.0,1755.0,1767.0,1821.0,1751.0,1747.0,1757.0,1735.0,62.62784194946289,19.37761688232422,-79.26799011230469,Left
2026.9700927734375,133731,1,1739.0,1757.0,1727.0,1772.0,1743.0,1750.0,1759.0,1740.0,62.62784194946289,19.37761688232422,-79.26799011230469,Left
2028.9700927734375,133731,1,1754.0,1757.0,1753.0,1695.0,1751.0,1751.0,1757.0,1751.0,64.20368194580078,19.200895309448242,-76.89066314697266,Left
2030.9700927734375,133731,1,1779.0,1753.0,1775.0,1687.0,1750.0,1753.0,1763.0,1758.0,64.20368194580078,19.200895309448242,-76.89066314697266,Left
2032.9700927734375,133731,1,1784.0,1757.0,1767.0,1715.0,1755.0,1753.0,1763.0,1758.0,64.20368194580078,19.200895309448242,-76.89066314697266,Left
2032.6337890625,133732,1,1787.0,1755.0,1769.0,1743.0,1753.0,1750.0,1757.0,1746.0,64.20368194580078,19.200895309448242,-76.89066314697266,Left
2034.6337890625,133732,1,1780.0,1755.0,1831.0,1748.0,1753.0,1754.0,1763.0,1754.0,64.20368194580078,19.200895309448242,-76.89066314697266,Left
2036.6337890625,133732,1,1763.0,1756.0,1813.0,1853.0,1757.0,1754.0,1759.0,1748.0,64.20368194580078,19.200895309448242,-76.89066314697266,Left
2038.6337890625,133732,1,1747.0,1757.0,1677.0,1772.0,1753.0,1751.0,1763.0,1736.0,64.20368194580078,19.200895309448242,-76.89066314697266,Left
2040.6337890625,133732,1,1735.0,1757.0,1531.0,1818.0,1752.0,1752.0,1763.0,1733.0,64.20368194580078,19.200895309448242,-76.89066314697266,Left
2044.158935546875,133733,1,1725.0,1749.0,1747.0,1765.0,1746.0,1752.0,1762.0,1752.0,64.20368194580078,19.200895309448242,-76.89066314697266,Left
2046.158935546875,133733,1,1739.0,1755.0,1831.0,1689.0,1748.0,1753.0,1761.0,1763.0,64.20368194580078,19.200895309448242,-76.89066314697266,Left
2048.158935546875,133733,1,1757.0,1756.0,1883.0,1691.0,1753.0,1751.0,1757.0,1763.0,64.20368194580078,19.200895309448242,-76.89066314697266,Left
2050.158935546875,133733,1,1772.0,1755.0,1819.0,1683.0,1753.0,1754.0,1761.0,1747.0,64.20368194580078,19.200895309448242,-76.89066314697266,Left
2052.158935546875,133733,1,1784.0,1756.0,1803.0,1671.0,1751.0,1753.0,1759.0,1749.0,64.20368194580078,19.200895309448242,-76.89066314697266,Left
2054.32080078125,133734,1,1781.0,1748.0,1591.0,1663.0,1756.0,1752.0,1755.0,1735.0,64.20368194580078,19.200895309448242,-76.89066314697266,Left
2056.32080078125,133734,1,1774.0,1757.0,1780.0,1693.0,1752.0,1754.0,1763.0,1755.0,64.20368194580078,19.200895309448242,-76.89066314697266,Left
2058.32080078125,133734,1,1765.0,1756.0,1757.0,1801.0,1749.0,1753.0,1759.0,1753.0,64.20368194580078,19.200895309448242,-76.89066314697266,Left
2060.32080078125,133734,1,1750.0,1755.0,1737.0,1773.0,1753.0,1753.0,1763.0,1757.0,64.20368194580078,19.200895309448242,-76.89066314697266,Left
2062.32080078125,133734,1,1735.0,1755.0,1763.0,1843.0,1755.0,1755.0,1762.0,1747.0,64.20368194580078,19.200895309448242,-76.89066314697266,Left
2064.880859375,133735,1,1737.0,1759.0,1788.0,1821.0,1743.0,1751.0,1755.0,1739.0,64.20368194580078,19.200895309448242,-76.89066314697266,Left
2066.880859375,133735,1,1741.0,1756.0,1799.0,1819.0,1751.0,1753.0,1763.0,1747.0,64.20368194580078,19.200895309448242,-76.89066314697266,Left
2068.880859375,133735,1,1761.0,1755.0,1812.0,1879.0,1751.0,1753.0,1762.0,1752.0,64.20368194580078,19.200895309448242,-76.89066314697266,Left
2070.880859375,133735,1,1775.0,1755.0,1751.0,1791.0,1751.0,1754.0,1763.0,1751.0,64.20368194580078,19.200895309448242,-76.89066314697266,Left
2072.880859375,133735,1,1782.0,1757.0,1724.0,1831.0,1755.0,1751.0,1763.0,1753.0,64.20368194580078,19.200895309448242,-76.89066314697266,Left
2074.14794921875,133736,1,1785.0,1757.0,1767.0,1800.0,1751.0,1753.0,1758.0,1755.0,64.20368194580078,19.200895309448242,-76.89066314697266,Left
2076.14794921875,133736,1,1779.0,1753.0,1767.0,1728.0,1753.0,1751.0,1763.0,1764.0,64.20368194580078,19.200895309448242,-76.89066314697266,Left
2078.14794921875,133736,1,1763.0,1755.0,1749.0,1703.0,1756.0,1755.0,1757.0,1757.0,64.20368194580078,19.200895309448242,-76.89066314697266,Left
2080.14794921875,133736,1,1747.0,1755.0,1751.0,1740.0,1751.0,1753.0,1757.0,1750.0,64.20368194580078,19.200895309448242,-76.89066314697266,Left
2082.14794921875,133736,1,1737.0,1756.0,1750.0,1767.0,1752.0,1754.0,1762.0,1748.0,64.20368194580078,19.200895309448242,-76.89066314697266,Left
2082.595703125,133737,1,1723.0,1753.0,1752.0,1819.0,1749.0,1752.0,1752.0,1748.0,64.20368194580078,19.200895309448242,-76.89066314697266,Left
2084.595703125,133737,1,1739.0,1755.0,1747.0,1672.0,1752.0,1753.0,1763.0,1746.0,64.20368194580078,19.200895309448242,-76.89066314697266,Left
2086.595703125,133737,1,1757.0,1756.0,1765.0,1614.0,1752.0,1753.0,1761.0,1747.0,64.20368194580078,19.200895309448242,-76.89066314697266,Left
2088.595703125,133737,1,1775.0,1756.0,1797.0,1607.0,1751.0,1755.0,1763.0,1738.0,64.20368194580078,19.200895309448242,-76.89066314697266,Left
2090.595703125,133737,1,1783.0,1756.0,1747.0,1739.0,1751.0,1752.0,1763.0,1749.0,64.20368194580078,19.200895309448242,-76.89066314697266,Left
2095.7490234375,133738,1,1780.0,1759.0,1746.0,1733.0,1754.0,1754.0,1759.0,1753.0,64.35391235351562,19.197349548339844,-76.45637512207031,Left
2097.7490234375,133738,1,1780.0,1756.0,1711.0,1719.0,1752.0,1755.0,1759.0,1752.0,64.35391235351562,19.197349548339844,-76.45637512207031,Left
2099.7490234375,133738,1,1767.0,1755.0,1753.0,1761.0,1753.0,1753.0,1763.0,1753.0,64.35391235351562,19.197349548339844,-76.45637512207031,Left
2101.7490234375,133738,1,1749.0,1755.0,1787.0,1852.0,1748.0,1753.0,1763.0,1754.0,64.35391235351562,19.197349548339844,-76.45637512207031,Left
2103.7490234375,133738,1,1734.0,1756.0,1821.0,1920.0,1751.0,1752.0,1763.0,1751.0,64.35391235351562,19.197349548339844,-76.45637512207031,Left
2102.76806640625,133739,1,1736.0,1755.0,1752.0,1947.0,1753.0,1753.0,1763.0,1752.0,64.35391235351562,19.197349548339844,-76.45637512207031,Left
2104.76806640625,133739,1,1737.0,1755.0,1562.0,1849.0,1753.0,1752.0,1763.0,1737.0,64.35391235351562,19.197349548339844,-76.45637512207031,Left
2106.76806640625,133739,1,1757.0,1755.0,1756.0,1723.0,1749.0,1754.0,1764.0,1742.0,64.35391235351562,19.197349548339844,-76.45637512207031,Left
2108.76806640625,133739,1,1773.0,1756.0,1739.0,1815.0,1751.0,1754.0,1763.0,1749.0,64.35391235351562,19.197349548339844,-76.45637512207031,Left
2110.76806640625,133739,1,1783.0,1755.0,1815.0,1783.0,1752.0,1754.0,1763.0,1762.0,64.35391235351562,19.197349548339844,-76.45637512207031,Left
2115.22802734375,133740,1,1786.0,1754.0,1843.0,1669.0,1752.0,1752.0,1761.0,1769.0,64.35391235351562,19.197349548339844,-76.45637512207031,Left
2117.22802734375,133740,1,1780.0,1751.0,1815.0,1695.0,1757.0,1749.0,1764.0,1757.0,64.35391235351562,19.197349548339844,-76.45637512207031,Left
2119.22802734375,133740,1,1765.0,1755.0,1772.0,1708.0,1751.0,1754.0,1765.0,1747.0,64.35391235351562,19.197349548339844,-76.45637512207031,Left
2121.22802734375,133740,1,1750.0,1757.0,1749.0,1699.0,1747.0,1754.0,1761.0,1741.0,64.35391235351562,19.197349548339844,-76.45637512207031,Left
2123.22802734375,133740,1,1738.0,1755.0,1768.0,1727.0,1752.0,1749.0,1758.0,1747.0,64.35391235351562,19.197349548339844,-76.45637512207031,Left
2124.114990234375,133741,1,1723.0,1751.0,1757.0,1705.0,1752.0,1755.0,1758.0,1752.0,64.35391235351562,19.197349548339844,-76.45637512207031,Left
2126.114990234375,133741,1,1737.0,1753.0,1617.0,1687.0,1743.0,1752.0,1757.0,1737.0,64.35391235351562,19.197349548339844,-76.45637512207031,Left
2128.114990234375,133741,1,1754.0,1756.0,1707.0,1721.0,1749.0,1751.0,1757.0,1748.0,64.35391235351562,19.197349548339844,-76.45637512207031,Left
2130.114990234375,133741,1,1775.0,1755.0,1816.0,1745.0,1753.0,1755.0,1757.0,1740.0,64.35391235351562,19.197349548339844,-76.45637512207031,Left
2132.114990234375,133741,1,1784.0,1755.0,1699.0,1703.0,1751.0,1752.0,1759.0,1741.0,64.35391235351562,19.197349548339844,-76.45637512207031,Left
2133.871826171875,133742,1,1783.0,1751.0,1819.0,1739.0,1743.0,1749.0,1753.0,1751.0,64.35391235351562,19.197349548339844,-76.45637512207031,Left
2135.871826171875,133742,1,1779.0,1753.0,1830.0,1818.0,1751.0,1752.0,1763.0,1755.0,64.35391235351562,19.197349548339844,-76.45637512207031,Left
2137.871826171875,133742,1,1766.0,1756.0,1767.0,1939.0,1752.0,1751.0,1763.0,1763.0,64.35391235351562,19.197349548339844,-76.45637512207031,Left
2139.871826171875,133742,1,1749.0,1754.0,1769.0,1803.0,1751.0,1755.0,1757.0,1750.0,64.35391235351562,19.197349548339844,-76.45637512207031,Left
2141.871826171875,133742,1,1736.0,1754.0,1741.0,1804.0,1753.0,1755.0,1763.0,1759.0,64.35391235351562,19.197349548339844,-76.45637512207031,Left
2151.038818359375,133743,1,1725.0,1753.0,1785.0,1774.0,1751.0,1741.0,1754.0,1747.0,64.35391235351562,19.197349548339844,-76.45637512207031,Left
2153.038818359375,133743,1,1737.0,1755.0,1707.0,1726.0,1751.0,1751.0,1765.0,1749.0,64.35391235351562,19.197349548339844,-76.45637512207031,Left
2155.038818359375,133743,1,1755.0,1755.0,1715.0,1701.0,1749.0,1753.0,1763.0,1739.0,64.35391235351562,19.197349548339844,-76.45637512207031,Left
2157.038818359375,133743,1,1769.0,1755.0,1737.0,1727.0,1752.0,1753.0,1763.0,1749.0,64.35391235351562,19.197349548339844,-76.45637512207031,Left
2159.038818359375,133743,1,1780.0,1755.0,1804.0,1691.0,1751.0,1751.0,1759.0,1753.0,64.35391235351562,19.197349548339844,-76.45637512207031,Left
2152.3896484375,133744,1,1785.0,1757.0,1815.0,1772.0,1753.0,1752.0,1763.0,1753.0,64.35391235351562,19.197349548339844,-76.45637512207031,Left
2154.3896484375,133744,1,1781.0,1755.0,1764.0,1815.0,1751.0,1752.0,1763.0,1755.0,64.35391235351562,19.197349548339844,-76.45637512207031,Left
2156.3896484375,133744,1,1765.0,1756.0,1727.0,1811.0,1748.0,1753.0,1758.0,1753.0,62.9536018371582,19.16780662536621,-78.4474105834961,Left
2158.3896484375,133744,1,1750.0,1755.0,1757.0,1849.0,1747.0,1753.0,1763.0,1749.0,62.9536018371582,19.16780662536621,-78.4474105834961,Left
2160.3896484375,133744,1,1735.0,1757.0,1783.0,1896.0,1759.0,1747.0,1759.0,1751.0,62.9536018371582,19.16780662536621,-78.4474105834961,Left
2163.084716796875,133745,1,1727.0,1751.0,1771.0,1916.0,1753.0,1752.0,1759.0,1755.0,62.9536018371582,19.16780662536621,-78.4474105834961,Left
2165.084716796875,133745,1,1738.0,1755.0,1640.0,1882.0,1750.0,1751.0,1755.0,1749.0,62.9536018371582,19.16780662536621,-78.4474105834961,Left
2167.084716796875,133745,1,1752.0,1756.0,1791.0,1811.0,1751.0,1753.0,1759.0,1747.0,62.9536018371582,19.16780662536621,-78.4474105834961,Left
2169.084716796875,133745,1,1773.0,1753.0,1775.0,1751.0,1750.0,1754.0,1759.0,1736.0,62.9536018371582,19.16780662536621,-78.4474105834961,Left
2171.084716796875,133745,1,1781.0,1755.0,1764.0,1693.0,1753.0,1753.0,1759.0,1749.0,62.9536018371582,19.16780662536621,-78.4474105834961,Left
2176.801025390625,133746,1,1785.0,1754.0,1720.0,1677.0,1748.0,1752.0,1759.0,1742.0,62.9536018371582,19.16780662536621,-78.4474105834961,Left
2178.801025390625,133746,1,1781.0,1763.0,1720.0,1658.0,1752.0,1755.0,1763.0,1757.0,62.9536018371582,19.16780662536621,-78.4474105834961,Left
2180.801025390625,133746,1,1765.0,1755.0,1907.0,1630.0,1753.0,1753.0,1762.0,1769.0,62.9536018371582,19.16780662536621,-78.4474105834961,Left
2182.801025390625,133746,1,1752.0,1757.0,1821.0,1672.0,1749.0,1753.0,1763.0,1755.0,62.9536018371582,19.16780662536621,-78.4474105834961,Left
2184.801025390625,133746,1,1737.0,1756.0,1723.0,1689.0,1752.0,1750.0,1763.0,1737.0,62.9536018371582,19.16780662536621,-78.4474105834961,Left
2184.4638671875,133747,1,1726.0,1753.0,1459.0,1755.0,1750.0,1752.0,1762.0,1715.0,62.9536018371582,19.16780662536621,-78.4474105834961,Left
2186.4638671875,133747,1,1736.0,1755.0,1781.0,1721.0,1747.0,1751.0,1759.0,1742.0,62.9536018371582,19.16780662536621,-78.4474105834961,Left
2188.4638671875,133747,1,1751.0,1753.0,1811.0,1707.0,1756.0,1750.0,1763.0,1758.0,62.9536018371582,19.16780662536621,-78.4474105834961,Left
2190.4638671875,133747,1,1770.0,1755.0,1775.0,1739.0,1758.0,1751.0,1759.0,1757.0,62.9536018371582,19.16780662536621,-78.4474105834961,Left
2192.4638671875,133747,1,1784.0,1757.0,1791.0,1749.0,1751.0,1752.0,1758.0,1759.0,62.9536018371582,19.16780662536621,-78.4474105834961,Left
2192.742919921875,133748,1,1783.0,1755.0,1804.0,1663.0,1745.0,1755.0,1763.0,1763.0,62.9536018371582,19.16780662536621,-78.4474105834961,Left
2194.742919921875,133748,1,1773.0,1755.0,1853.0,1764.0,1749.0,1753.0,1757.0,1757.0,62.9536018371582,19.16780662536621,-78.4474105834961,Left
2196.742919921875,133748,1,1765.0,1754.0,1525.0,1753.0,1753.0,1753.0,1763.0,1739.0,62.9536018371582,19.16780662536621,-78.4474105834961,Left
2198.742919921875,133748,1,1751.0,1755.0,1813.0,1821.0,1755.0,1751.0,1757.0,1753.0,62.9536018371582,19.16780662536621,-78.4474105834961,Left
2200.742919921875,133748,1,1738.0,1754.0,1813.0,1803.0,1750.0,1752.0,1764.0,1747.0,62.9536018371582,19.16780662536621,-78.4474105834961,Left
2203.345947265625,133749,1,1733.0,1755.0,1775.0,1753.0,1750.0,1753.0,1764.0,1755.0,62.9536018371582,19.16780662536621,-78.4474105834961,Left
2205.345947265625,133749,1,1737.0,1754.0,1892.0,1741.0,1747.0,1750.0,1763.0,1735.0,62.9536018371582,19.16780662536621,-78.4474105834961,Left
2207.345947265625,133749,1,1755.0,1753.0,1844.0,1703.0,1747.0,1752.0,1763.0,1749.0,62.9536018371582,19.16780662536621,-78.4474105834961,Left
2209.345947265625,133749,1,1772.0,1757.0,1802.0,1757.0,1735.0,1753.0,1763.0,1735.0,62.9536018371582,19.16780662536621,-78.4474105834961,Left
2211.345947265625,133749,1,1782.0,1755.0,1541.0,1800.0,1741.0,1753.0,1758.0,1683.0,62.9536018371582,19.16780662536621,-78.4474105834961,Left
2212.643798828125,133750,1,1785.0,1756.0,1763.0,1765.0,1752.0,1750.0,1758.0,1755.0,62.9536018371582,19.16780662536621,-78.4474105834961,Left
2214.643798828125,133750,1,1781.0,1756.0,1765.0,1807.0,1784.0,1751.0,1764.0,1771.0,62.9536018371582,19.16780662536621,-78.4474105834961,Left
2216.643798828125,133750,1,1769.0,1757.0,1725.0,1787.0,1767.0,1755.0,1761.0,1758.0,62.9536018371582,19.16780662536621,-78.4474105834961,Left
2218.643798828125,133750,1,1751.0,1757.0,1723.0,1737.0,1752.0,1752.0,1765.0,1757.0,62.9536018371582,19.16780662536621,-78.4474105834961,Left
2220.643798828125,133750,1,1739.0,1757.0,1764.0,1811.0,1752.0,1753.0,1763.0,1759.0,62.83130645751953,19.283466339111328,-78.32160186767578,Left
2223.098876953125,133751,1,1725.0,1752.0,1704.0,1823.0,1751.0,1752.0,1759.0,1750.0,62.83130645751953,19.283466339111328,-78.32160186767578,Left
2225.098876953125,133751,1,1737.0,1754.0,1721.0,1775.0,1752.0,1753.0,1759.0,1741.0,62.83130645751953,19.283466339111328,-78.32160186767578,Left
2227.098876953125,133751,1,1753.0,1755.0,1709.0,1699.0,1741.0,1754.0,1762.0,1727.0,62.83130645751953,19.283466339111328,-78.32160186767578,Left
2229.098876953125,133751,1,1771.0,1758.0,1881.0,1769.0,1735.0,1753.0,1763.0,1743.0,62.83130645751953,19.283466339111328,-78.32160186767578,Left
2231.098876953125,133751,1,1783.0,1756.0,2007.0,1709.0,1749.0,1751.0,1759.0,1772.0,62.83130645751953,19.283466339111328,-78.32160186767578,Left
2233.497802734375,133752,1,1786.0,1753.0,1927.0,1704.0,1748.0,1751.0,1763.0,1757.0,62.83130645751953,19.283466339111328,-78.32160186767578,Left
2235.497802734375,133752,1,1781.0,1756.0,1620.0,1669.0,1749.0,1752.0,1764.0,1746.0,62.83130645751953,19.283466339111328,-78.32160186767578,Left
2237.497802734375,133752,1,1769.0,1754.0,1447.0,1743.0,1750.0,1751.0,1759.0,1721.0,62.83130645751953,19.283466339111328,-78.32160186767578,Left
2239.497802734375,133752,1,1753.0,1755.0,1717.0,1743.0,1753.0,1753.0,1765.0,1764.0,62.83130645751953,19.283466339111328,-78.32160186767578,Left
2241.497802734375,133752,1,1740.0,1755.0,1865.0,1815.0,1766.0,1752.0,1757.0,1779.0,62.83130645751953,19.283466339111328,-78.32160186767578,Left
2243.047119140625,133753,1,1727.0,1757.0,1734.0,1801.0,1753.0,1753.0,1763.0,1769.0,62.83130645751953,19.283466339111328,-78.32160186767578,Left
2245.047119140625,133753,1,1737.0,1757.0,1723.0,1833.0,1747.0,1753.0,1763.0,1747.0,62.83130645751953,19.283466339111328,-78.32160186767578,Left
2247.047119140625,133753,1,1749.0,1754.0,1763.0,1775.0,1749.0,1753.0,1763.0,1722.0,62.83130645751953,19.283466339111328,-78.32160186767578,Left
2249.047119140625,133753,1,1769.0,1757.0,1817.0,1717.0,1743.0,1752.0,1763.0,1715.0,62.83130645751953,19.283466339111328,-78.32160186767578,Left
2251.047119140625,133753,1,1781.0,1757.0,1625.0,1658.0,1749.0,1753.0,1768.0,1706.0,62.83130645751953,19.283466339111328,-78.32160186767578,Left
2253.822998046875,133754,1,1785.0,1756.0,1805.0,1619.0,1762.0,1749.0,1763.0,1743.0,62.83130645751953,19.283466339111328,-78.32160186767578,Left
2255.822998046875,133754,1,1783.0,1754.0,1831.0,1701.0,1765.0,1753.0,1763.0,1767.0,62.83130645751953,19.283466339111328,-78.32160186767578,Left
2257.822998046875,133754,1,1768.0,1756.0,1787.0,1688.0,1767.0,1753.0,1763.0,1757.0,62.83130645751953,19.283466339111328,-78.32160186767578,Left
2259.822998046875,133754,1,1751.0,1755.0,1750.0,1875.0,1735.0,1755.0,1759.0,1765.0,62.83130645751953,19.283466339111328,-78.32160186767578,Left
2261.822998046875,133754,1,1737.0,1752.0,1803.0,1763.0,1741.0,1755.0,1763.0,1759.0,62.83130645751953,19.283466339111328,-78.32160186767578,Left
2265.343994140625,133755,1,1723.0,1762.0,1737.0,1773.0,1757.0,1755.0,1763.0,1753.0,62.83130645751953,19.283466339111328,-78.32160186767578,Left
2267.343994140625,133755,1,1737.0,1757.0,1674.0,1756.0,1751.0,1750.0,1763.0,1735.0,62.83130645751953,19.283466339111328,-78.32160186767578,Left
2269.343994140625,133755,1,1751.0,1757.0,1706.0,1773.0,1753.0,1755.0,1763.0,1755.0,62.83130645751953,19.283466339111328,-78.32160186767578,Left
2271.343994140625,133755,1,1767.0,1753.0,1853.0,1782.0,1741.0,1759.0,1763.0,1770.0,62.83130645751953,19.283466339111328,-78.32160186767578,Left
2273.343994140625,133755,1,1783.0,1754.0,1791.0,1805.0,1743.0,1752.0,1763.0,1765.0,62.83130645751953,19.283466339111328,-78.32160186767578,Left
2273.343017578125,133756,1,1787.0,1757.0,1655.0,1711.0,1767.0,1753.0,1764.0,1748.0,62.83130645751953,19.283466339111328,-78.32160186767578,Left
2275.343017578125,133756,1,1780.0,1755.0,1739.0,1675.0,1771.0,1749.0,1762.0,1764.0,62.83130645751953,19.283466339111328,-78.32160186767578,Left
2277.343017578125,133756,1,1770.0,1757.0,1832.0,1814.0,1739.0,1755.0,1763.0,1727.0,62.83130645751953,19.283466339111328,-78.32160186767578,Left
2279.343017578125,133756,1,1756.0,1758.0,1833.0,1804.0,1749.0,1753.0,1763.0,1758.0,62.83130645751953,19.283466339111328,-78.32160186767578,Left
2281.343017578125,133756,1,1740.0,1757.0,1647.0,1851.0,1755.0,1752.0,1764.0,1741.0,62.83130645751953,19.283466339111328,-78.32160186767578,Left
2283.541015625,133757,1,1727.0,1759.0,1775.0,1833.0,1735.0,1745.0,1763.0,1736.0,62.83130645751953,19.283466339111328,-78.32160186767578,Left
2285.541015625,133757,1,1735.0,1755.0,1862.0,1759.0,1743.0,1752.0,1763.0,1747.0,62.83130645751953,19.283466339111328,-78.32160186767578,Left
2287.541015625,133757,1,1751.0,1756.0,1806.0,1773.0,1755.0,1751.0,1763.0,1753.0,62.21867752075195,19.42650604248047,-78.26337432861328,Left
2289.541015625,133757,1,1771.0,1753.0,1719.0,1661.0,1747.0,1753.0,1758.0,1738.0,62.21867752075195,19.42650604248047,-78.26337432861328,Left
2291.541015625,133757,1,1775.0,1756.0,1783.0,1707.0,1749.0,1753.0,1762.0,1743.0,62.21867752075195,19.42650604248047,-78.26337432861328,Left
2292.4208984375,133758,1,1786.0,1755.0,1874.0,1627.0,1753.0,1752.0,1761.0,1753.0,62.21867752075195,19.42650604248047,-78.26337432861328,Left
2294.4208984375,133758,1,1781.0,1756.0,1803.0,1661.0,1771.0,1753.0,1763.0,1769.0,62.21867752075195,19.42650604248047,-78.26337432861328,Left
2296.4208984375,133758,1,1772.0,1753.0,1725.0,1694.0,1719.0,1753.0,1762.0,1769.0,62.21867752075195,19.42650604248047,-78.26337432861328,Left
2298.4208984375,133758,1,1752.0,1755.0,1701.0,1689.0,1715.0,1753.0,1762.0,1753.0,62.21867752075195,19.42650604248047,-78.26337432861328,Left
2300.4208984375,133758,1,1741.0,1753.0,1716.0,1745.0,1743.0,1752.0,1764.0,1736.0,62.21867752075195,19.42650604248047,-78.26337432861328,Left
2302.287841796875,133759,1,1722.0,1758.0,1763.0,1771.0,1817.0,1751.0,1763.0,1735.0,62.21867752075195,19.42650604248047,-78.26337432861328,Left
2304.287841796875,133759,1,1736.0,1755.0,1707.0,1681.0,1806.0,1748.0,1762.0,1733.0,62.21867752075195,19.42650604248047,-78.26337432861328,Left
2306.287841796875,133759,1,1749.0,1759.0,1817.0,1805.0,1735.0,1753.0,1763.0,1762.0,62.21867752075195,19.42650604248047,-78.26337432861328,Left
2308.287841796875,133759,1,1768.0,1757.0,1804.0,1751.0,1724.0,1755.0,1763.0,1771.0,62.21867752075195,19.42650604248047,-78.26337432861328,Left
2310.287841796875,133759,1,1781.0,1756.0,1751.0,1847.0,1722.0,1753.0,1758.0,1761.0,62.21867752075195,19.42650604248047,-78.26337432861328,Left
2313.087890625,133760,1,1783.0,1759.0,1809.0,1755.0,1758.0,1753.0,1759.0,1752.0,62.21867752075195,19.42650604248047,-78.26337432861328,Left
2315.087890625,133760,1,1781.0,1755.0,1787.0,1693.0,1766.0,1755.0,1759.0,1755.0,62.21867752075195,19.42650604248047,-78.26337432861328,Left
2317.087890625,133760,1,1771.0,1756.0,1782.0,1703.0,1733.0,1755.0,1764.0,1757.0,62.21867752075195,19.42650604248047,-78.26337432861328,Left
2319.087890625,133760,1,1754.0,1755.0,1799.0,1835.0,1703.0,1752.0,1763.0,1739.0,62.21867752075195,19.42650604248047,-78.26337432861328,Left
2321.087890625,133760,1,1737.0,1753.0,1688.0,1805.0,1750.0,1753.0,1765.0,1747.0,62.21867752075195,19.42650604248047,-78.26337432861328,Left
2323.03369140625,133761,1,1727.0,1756.0,1724.0,1824.0,1803.0,1753.0,1765.0,1751.0,62.21867752075195,19.42650604248047,-78.26337432861328,Left
2325.03369140625,133761,1,1737.0,1756.0,1769.0,1773.0,1852.0,1753.0,1757.0,1766.0,62.21867752075195,19.42650604248047,-78.26337432861328,Left
2327.03369140625,133761,1,1747.0,1754.0,1763.0,1785.0,1715.0,1755.0,1757.0,1751.0,62.21867752075195,19.42650604248047,-78.26337432861328,Left
2329.03369140625,133761,1,1769.0,1755.0,1769.0,1931.0,1781.0,1753.0,1759.0,1751.0,62.21867752075195,19.42650604248047,-78.26337432861328,Left
2331.03369140625,133761,1,1780.0,1755.0,1743.0,1912.0,1659.0,1752.0,1763.0,1711.0,62.21867752075195,19.42650604248047,-78.26337432861328,Left
2332.638916015625,133762,1,1785.0,1755.0,1769.0,1995.0,1519.0,1753.0,1762.0,1756.0,62.21867752075195,19.42650604248047,-78.26337432861328,Left
2334.638916015625,133762,1,1780.0,1755.0,1756.0,1865.0,1755.0,1752.0,1759.0,1755.0,62.21867752075195,19.42650604248047,-78.26337432861328,Left
2336.638916015625,133762,1,1771.0,1755.0,1759.0,1711.0,1961.0,1751.0,1763.0,1773.0,62.21867752075195,19.42650604248047,-78.26337432861328,Left
2338.638916015625,133762,1,1755.0,1753.0,1757.0,1758.0,1944.0,1753.0,1763.0,1763.0,62.21867752075195,19.42650604248047,-78.26337432861328,Left
2340.638916015625,133762,1,1741.0,1755.0,1755.0,1710.0,1741.0,1753.0,1764.0,1748.0,62.21867752075195,19.42650604248047,-78.26337432861328,Left
2342.690673828125,133763,1,1725.0,1757.0,1756.0,1593.0,1807.0,1752.0,1763.0,1735.0,62.21867752075195,19.42650604248047,-78.26337432861328,Left
2344.690673828125,133763,1,1737.0,1757.0,1757.0,1625.0,1648.0,1752.0,1761.0,1728.0,62.21867752075195,19.42650604248047,-78.26337432861328,Left
2346.690673828125,133763,1,1747.0,1756.0,1785.0,1660.0,1699.0,1753.0,1757.0,1756.0,62.21867752075195,19.42650604248047,-78.26337432861328,Left
2348.690673828125,133763,1,1768.0,1756.0,1759.0,1618.0,1683.0,1751.0,1757.0,1739.0,62.21867752075195,19.42650604248047,-78.26337432861328,Left
2350.690673828125,133763,1,1775.0,1756.0,1767.0,1691.0,1852.0,1752.0,1763.0,1763.0,61.51723098754883,20.079872131347656,-77.7725601196289,Left
2353.41796875,133764,1,1781.0,1753.0,1757.0,1707.0,1801.0,1753.0,1765.0,1745.0,61.51723098754883,20.079872131347656,-77.7725601196289,Left
2355.41796875,133764,1,1781.0,1756.0,1752.0,1783.0,1815.0,1752.0,1758.0,1767.0,61.51723098754883,20.079872131347656,-77.7725601196289,Left
2357.41796875,133764,1,1770.0,1757.0,1741.0,1749.0,1671.0,1751.0,1764.0,1757.0,61.51723098754883,20.079872131347656,-77.7725601196289,Left
2359.41796875,133764,1,1751.0,1755.0,1755.0,1832.0,1747.0,1753.0,1763.0,1749.0,61.51723098754883,20.079872131347656,-77.7725601196289,Left
2361.41796875,133764,1,1739.0,1757.0,1754.0,1813.0,1700.0,1753.0,1758.0,1733.0,61.51723098754883,20.079872131347656,-77.7725601196289,Left
2363.678955078125,133765,1,1725.0,1752.0,1754.0,1823.0,1871.0,1752.0,1757.0,1743.0,61.51723098754883,20.079872131347656,-77.7725601196289,Left
2365.678955078125,133765,1,1735.0,1753.0,1727.0,1832.0,1651.0,1753.0,1763.0,1763.0,61.51723098754883,20.079872131347656,-77.7725601196289,Left
2367.678955078125,133765,1,1750.0,1753.0,1755.0,1787.0,1573.0,1755.0,1763.0,1737.0,61.51723098754883,20.079872131347656,-77.7725601196289,Left
2369.678955078125,133765,1,1768.0,1755.0,1770.0,1750.0,1693.0,1753.0,1765.0,1757.0,61.51723098754883,20.079872131347656,-77.7725601196289,Left
2371.678955078125,133765,1,1780.0,1755.0,1763.0,1677.0,1767.0,1749.0,1762.0,1743.0,61.51723098754883,20.079872131347656,-77.7725601196289,Left
2373.36767578125,133766,1,1784.0,1749.0,1761.0,1688.0,1517.0,1751.0,1763.0,1766.0,61.51723098754883,20.079872131347656,-77.7725601196289,Left
2375.36767578125,133766,1,1781.0,1757.0,1803.0,1743.0,1429.0,1755.0,1763.0,1767.0,61.51723098754883,20.079872131347656,-77.7725601196289,Left
2377.36767578125,133766,1,1767.0,1757.0,1781.0,1816.0,2172.0,1752.0,1763.0,1756.0,61.51723098754883,20.079872131347656,-77.7725601196289,Left
2379.36767578125,133766,1,1741.0,1757.0,1741.0,1848.0,2411.0,1751.0,1759.0,1757.0,61.51723098754883,20.079872131347656,-77.7725601196289,Left
2381.36767578125,133766,1,1719.0,1755.0,1762.0,1831.0,1916.0,1752.0,1765.0,1746.0,61.51723098754883,20.079872131347656,-77.7725601196289,Left
2382.572998046875,133767,1,1701.0,1762.0,1721.0,1897.0,1416.0,1752.0,1764.0,1718.0,61.51723098754883,20.079872131347656,-77.7725601196289,Left
2384.572998046875,133767,1,1709.0,1757.0,1773.0,1760.0,1929.0,1755.0,1761.0,1767.0,61.51723098754883,20.079872131347656,-77.7725601196289,Left
2386.572998046875,133767,1,1718.0,1753.0,1775.0,1770.0,2143.0,1753.0,1757.0,1739.0,61.51723098754883,20.079872131347656,-77.7725601196289,Left
2388.572998046875,133767,1,1741.0,1753.0,1733.0,1789.0,1725.0,1755.0,1758.0,1720.0,61.51723098754883,20.079872131347656,-77.7725601196289,Left
2390.572998046875,133767,1,1751.0,1758.0,1762.0,1833.0,1351.0,1753.0,1758.0,1775.0,61.51723098754883,20.079872131347656,-77.7725601196289,Left
2392.8369140625,133768,1,1757.0,1754.0,1785.0,1813.0,1549.0,1753.0,1763.0,1780.0,61.51723098754883,20.079872131347656,-77.7725601196289,Left
2394.8369140625,133768,1,1753.0,1755.0,1783.0,1742.0,1927.0,1754.0,1765.0,1749.0,61.51723098754883,20.079872131347656,-77.7725601196289,Left
2396.8369140625,133768,1,1750.0,1756.0,1727.0,1749.0,1767.0,1753.0,1763.0,1711.0,61.51723098754883,20.079872131347656,-77.7725601196289,Left
2398.8369140625,133768,1,1733.0,1757.0,1719.0,1723.0,1991.0,1753.0,1763.0,1686.0,61.51723098754883,20.079872131347656,-77.7725601196289,Left
2400.8369140625,133768,1,1707.0,1755.0,1735.0,1751.0,1577.0,1753.0,1757.0,1737.0,61.51723098754883,20.079872131347656,-77.7725601196289,Left
2402.86181640625,133769,1,1694.0,1756.0,1747.0,1701.0,1559.0,1753.0,1763.0,1799.0,61.51723098754883,20.079872131347656,-77.7725601196289,Left
2404.86181640625,133769,1,1701.0,1757.0,1805.0,1716.0,1919.0,1753.0,1764.0,1803.0,61.51723098754883,20.079872131347656,-77.7725601196289,Left
2406.86181640625,133769,1,1715.0,1754.0,1751.0,1726.0,1944.0,1751.0,1761.0,1717.0,61.51723098754883,20.079872131347656,-77.7725601196289,Left
2408.86181640625,133769,1,1739.0,1755.0,1775.0,1721.0,1331.0,1752.0,1765.0,1747.0,61.51723098754883,20.079872131347656,-77.7725601196289,Left
2410.86181640625,133769,1,1755.0,1759.0,1762.0,1803.0,1625.0,1753.0,1765.0,1747.0,61.51723098754883,20.079872131347656,-77.7725601196289,Left
2413.068115234375,133770,1,1766.0,1754.0,1765.0,1813.0,2170.0,1751.0,1763.0,1752.0,61.51723098754883,20.079872131347656,-77.7725601196289,Left
2415.068115234375,133770,1,1768.0,1756.0,1709.0,1750.0,2154.0,1752.0,1764.0,1753.0,61.51723098754883,20.079872131347656,-77.7725601196289,Left
2417.068115234375,133770,1,1763.0,1755.0,1743.0,1747.0,1576.0,1753.0,1763.0,1767.0,64.9474868774414,20.914602279663086,-72.86457061767578,Left
2419.068115234375,133770,1,1751.0,1757.0,1754.0,1775.0,1479.0,1753.0,1764.0,1765.0,64.9474868774414,20.914602279663086,-72.86457061767578,Left
2421.068115234375,133770,1,1733.0,1756.0,1771.0,1865.0,1669.0,1751.0,1763.0,1769.0,64.9474868774414,20.914602279663086,-72.86457061767578,Left
2422.906982421875,133771,1,1712.0,1751.0,1735.0,1868.0,1774.0,1753.0,1757.0,1741.0,64.9474868774414,20.914602279663086,-72.86457061767578,Left
2424.906982421875,133771,1,1727.0,1757.0,1737.0,1768.0,1706.0,1753.0,1757.0,1717.0,64.9474868774414,20.914602279663086,-72.86457061767578,Left
2426.906982421875,133771,1,1746.0,1755.0,1780.0,1801.0,1745.0,1754.0,1757.0,1754.0,64.9474868774414,20.914602279663086,-72.86457061767578,Left
2428.906982421875,133771,1,1763.0,1755.0,1771.0,1836.0,1533.0,1753.0,1763.0,1754.0,64.9474868774414,20.914602279663086,-72.86457061767578,Left
2430.906982421875,133771,1,1779.0,1756.0,1767.0,1863.0,1655.0,1755.0,1761.0,1753.0,64.9474868774414,20.914602279663086,-72.86457061767578,Left
2432.683837890625,133772,1,1781.0,1751.0,1737.0,1899.0,1892.0,1754.0,1759.0,1804.0,64.9474868774414,20.914602279663086,-72.86457061767578,Left
2434.683837890625,133772,1,1775.0,1756.0,1837.0,1780.0,1703.0,1751.0,1763.0,1871.0,64.9474868774414,20.914602279663086,-72.86457061767578,Left
2436.683837890625,133772,1,1769.0,1757.0,1783.0,1803.0,1483.0,1751.0,1764.0,1783.0,64.9474868774414,20.914602279663086,-72.86457061767578,Left
2438.683837890625,133772,1,1751.0,1755.0,1721.0,1819.0,1811.0,1754.0,1763.0,1745.0,64.9474868774414,20.914602279663086,-72.86457061767578,Left
2440.683837890625,133772,1,1735.0,1755.0,1656.0,1803.0,2069.0,1752.0,1764.0,1702.0,64.9474868774414,20.914602279663086,-72.86457061767578,Left
2442.73486328125,133773,1,1714.0,1755.0,1782.0,1785.0,1897.0,1751.0,1763.0,1725.0,64.9474868774414,20.914602279663086,-72.86457061767578,Left
2444.73486328125,133773,1,1715.0,1757.0,1751.0,1785.0,2105.0,1753.0,1763.0,1689.0,64.9474868774414,20.914602279663086,-72.86457061767578,Left
2446.73486328125,133773,1,1724.0,1757.0,1733.0,1618.0,1636.0,1752.0,1759.0,1695.0,64.9474868774414,20.914602279663086,-72.86457061767578,Left
2448.73486328125,133773,1,1745.0,1747.0,1789.0,1781.0,1258.0,1752.0,1763.0,1737.0,64.9474868774414,20.914602279663086,-72.86457061767578,Left
2450.73486328125,133773,1,1764.0,1754.0,1810.0,1827.0,1589.0,1754.0,1763.0,1725.0,64.9474868774414,20.914602279663086,-72.86457061767578,Left
2452.679931640625,133774,1,1769.0,1757.0,1755.0,1748.0,2012.0,1753.0,1763.0,1727.0,64.9474868774414,20.914602279663086,-72.86457061767578,Left
2454.679931640625,133774,1,1764.0,1756.0,1769.0,1862.0,2043.0,1767.0,1765.0,1746.0,64.9474868774414,20.914602279663086,-72.86457061767578,Left
2456.679931640625,133774,1,1745.0,1753.0,1768.0,1897.0,1733.0,1753.0,1763.0,1727.0,64.9474868774414,20.914602279663086,-72.86457061767578,Left
2458.679931640625,133774,1,1701.0,1756.0,1739.0,1899.0,1695.0,1753.0,1763.0,1765.0,64.9474868774414,20.914602279663086,-72.86457061767578,Left
2460.679931640625,133774,1,1675.0,1757.0,1799.0,1875.0,1517.0,1751.0,1759.0,1765.0,64.9474868774414,20.914602279663086,-72.86457061767578,Left
2462.626708984375,133775,1,1643.0,1751.0,1745.0,1917.0,2076.0,1754.0,1763.0,1734.0,64.9474868774414,20.914602279663086,-72.86457061767578,Left
2464.626708984375,133775,1,1641.0,1756.0,1755.0,1870.0,1827.0,1752.0,1754.0,1747.0,64.9474868774414,20.914602279663086,-72.86457061767578,Left
2466.626708984375,133775,1,1655.0,1753.0,1789.0,1975.0,1868.0,1751.0,1764.0,1754.0,64.9474868774414,20.914602279663086,-72.86457061767578,Left
2468.626708984375,133775,1,1677.0,1756.0,1817.0,1927.0,1495.0,1753.0,1762.0,1755.0,64.9474868774414,20.914602279663086,-72.86457061767578,Left
2470.626708984375,133775,1,1703.0,1756.0,1807.0,1803.0,1611.0,1749.0,1764.0,1747.0,64.9474868774414,20.914602279663086,-72.86457061767578,Left
2475.789794921875,133776,1,1717.0,1754.0,1767.0,1781.0,1657.0,1749.0,1763.0,1748.0,64.9474868774414,20.914602279663086,-72.86457061767578,Left
2477.789794921875,133776,1,1721.0,1758.0,1720.0,1832.0,1851.0,1754.0,1763.0,1691.0,64.9474868774414,20.914602279663086,-72.86457061767578,Left
2479.789794921875,133776,1,1719.0,1756.0,1595.0,1815.0,1945.0,1752.0,1759.0,1739.0,64.9474868774414,20.914602279663086,-72.86457061767578,Left
2481.789794921875,133776,1,1704.0,1755.0,1639.0,1838.0,1404.0,1751.0,1757.0,1746.0,64.9474868774414,20.914602279663086,-72.86457061767578,Left
2483.789794921875,133776,1,1695.0,1759.0,1733.0,1750.0,1883.0,1754.0,1762.0,1727.0,66.52918243408203,18.30145263671875,-78.00750732421875,Left
2483.537841796875,133777,1,1686.0,1763.0,1799.0,1653.0,2150.0,1752.0,1764.0,1799.0,66.52918243408203,18.30145263671875,-78.00750732421875,Left
2485.537841796875,133777,1,1691.0,1753.0,1779.0,1583.0,1507.0,1750.0,1762.0,1727.0,66.52918243408203,18.30145263671875,-78.00750732421875,Left
2487.537841796875,133777,1,1709.0,1755.0,1757.0,1545.0,1699.0,1754.0,1758.0,1739.0,66.52918243408203,18.30145263671875,-78.00750732421875,Left
2489.537841796875,133777,1,1745.0,1757.0,1781.0,1545.0,1685.0,1753.0,1761.0,1751.0,66.52918243408203,18.30145263671875,-78.00750732421875,Left
2491.537841796875,133777,1,1769.0,1757.0,1753.0,1621.0,1571.0,1753.0,1762.0,1720.0,66.52918243408203,18.30145263671875,-78.00750732421875,Left
2494.829833984375,133778,1,1783.0,1758.0,1783.0,1605.0,2187.0,1753.0,1763.0,1769.0,66.52918243408203,18.30145263671875,-78.00750732421875,Left
2496.829833984375,133778,1,1783.0,1753.0,1799.0,1677.0,1183.0,1755.0,1762.0,1767.0,66.52918243408203,18.30145263671875,-78.00750732421875,Left
2498.829833984375,133778,1,1774.0,1754.0,1751.0,1671.0,1669.0,1753.0,1763.0,1741.0,66.52918243408203,18.30145263671875,-78.00750732421875,Left
2500.829833984375,133778,1,1754.0,1757.0,1759.0,1647.0,2633.0,1753.0,1763.0,1755.0,66.52918243408203,18.30145263671875,-78.00750732421875,Left
2502.829833984375,133778,1,1741.0,1756.0,1725.0,1721.0,1784.0,1753.0,1759.0,1749.0,66.52918243408203,18.30145263671875,-78.00750732421875,Left
2504.722900390625,133779,1,1717.0,1755.0,1752.0,1819.0,1709.0,1748.0,1757.0,1738.0,66.52918243408203,18.30145263671875,-78.00750732421875,Left
2506.722900390625,133779,1,1723.0,1755.0,1747.0,1861.0,1687.0,1751.0,1759.0,1717.0,66.52918243408203,18.30145263671875,-78.00750732421875,Left
2508.722900390625,133779,1,1735.0,1757.0,1739.0,1773.0,1709.0,1753.0,1757.0,1742.0,66.52918243408203,18.30145263671875,-78.00750732421875,Left
2510.722900390625,133779,1,1762.0,1758.0,1783.0,1699.0,1769.0,1751.0,1763.0,1765.0,66.52918243408203,18.30145263671875,-78.00750732421875,Left
2512.722900390625,133779,1,1784.0,1755.0,1775.0,1699.0,1577.0,1747.0,1763.0,1763.0,66.52918243408203,18.30145263671875,-78.00750732421875,Left
2512.906982421875,133780,1,1790.0,1755.0,1751.0,1753.0,1753.0,1751.0,1765.0,1757.0,66.52918243408203,18.30145263671875,-78.00750732421875,Left
2514.906982421875,133780,1,1799.0,1757.0,1753.0,1750.0,1648.0,1753.0,1759.0,1741.0,66.52918243408203,18.30145263671875,-78.00750732421875,Left
2516.906982421875,133780,1,1785.0,1757.0,1765.0,1758.0,1870.0,1753.0,1765.0,1771.0,66.52918243408203,18.30145263671875,-78.00750732421875,Left
2518.906982421875,133780,1,1765.0,1755.0,1799.0,1715.0,1833.0,1751.0,1763.0,1764.0,66.52918243408203,18.30145263671875,-78.00750732421875,Left
2520.906982421875,133780,1,1747.0,1757.0,1693.0,1791.0,1799.0,1751.0,1764.0,1705.0,66.52918243408203,18.30145263671875,-78.00750732421875,Left
2524.10498046875,133781,1,1737.0,1753.0,1765.0,1764.0,1707.0,1749.0,1757.0,1754.0,66.52918243408203,18.30145263671875,-78.00750732421875,Left
2526.10498046875,133781,1,1740.0,1756.0,1769.0,1791.0,1352.0,1749.0,1764.0,1755.0,66.52918243408203,18.30145263671875,-78.00750732421875,Left
2528.10498046875,133781,1,1749.0,1757.0,1769.0,1805.0,1483.0,1751.0,1763.0,1755.0,66.52918243408203,18.30145263671875,-78.00750732421875,Left
2530.10498046875,133781,1,1775.0,1756.0,1761.0,1716.0,2871.0,1753.0,1763.0,1757.0,66.52918243408203,18.30145263671875,-78.00750732421875,Left
2532.10498046875,133781,1,1799.0,1756.0,1769.0,1683.0,1814.0,1751.0,1763.0,1750.0,66.52918243408203,18.30145263671875,-78.00750732421875,Left
2533.829833984375,133782,1,1804.0,1758.0,1753.0,1580.0,1799.0,1747.0,1755.0,1733.0,66.52918243408203,18.30145263671875,-78.00750732421875,Left
2535.829833984375,133782,1,1807.0,1755.0,1740.0,1599.0,1625.0,1753.0,1759.0,1753.0,66.52918243408203,18.30145263671875,-78.00750732421875,Left
2537.829833984375,133782,1,1799.0,1757.0,1758.0,1703.0,1773.0,1753.0,1757.0,1767.0,66.52918243408203,18.30145263671875,-78.00750732421875,Left
2539.829833984375,133782,1,1771.0,1756.0,1743.0,1611.0,1502.0,1753.0,1764.0,1767.0,66.52918243408203,18.30145263671875,-78.00750732421875,Left
2541.829833984375,133782,1,1752.0,1757.0,1772.0,1611.0,2045.0,1754.0,1763.0,1771.0,66.52918243408203,18.30145263671875,-78.00750732421875,Left
2545.02783203125,133783,1,1738.0,1753.0,1758.0,1599.0,2072.0,1751.0,1755.0,1765.0,66.52918243408203,18.30145263671875,-78.00750732421875,Left
2547.02783203125,133783,1,1736.0,1754.0,1757.0,1737.0,1467.0,1753.0,1763.0,1749.0,66.52918243408203,18.30145263671875,-78.00750732421875,Left
2549.02783203125,133783,1,1753.0,1756.0,1753.0,1819.0,1485.0,1752.0,1763.0,1733.0,69.21846008300781,11.636157989501953,-76.04837036132812,Left
2551.02783203125,133783,1,1775.0,1757.0,1757.0,1644.0,1863.0,1751.0,1763.0,1750.0,69.21846008300781,11.636157989501953,-76.04837036132812,Left
2553.02783203125,133783,1,1801.0,1756.0,1757.0,1543.0,1738.0,1753.0,1757.0,1741.0,69.21846008300781,11.636157989501953,-76.04837036132812,Left
2554.5439453125,133784,1,1809.0,1756.0,1772.0,1627.0,1688.0,1749.0,1759.0,1743.0,69.21846008300781,11.636157989501953,-76.04837036132812,Left
2556.5439453125,133784,1,1805.0,1757.0,1756.0,1693.0,1885.0,1752.0,1758.0,1759.0,69.21846008300781,11.636157989501953,-76.04837036132812,Left
2558.5439453125,133784,1,1801.0,1755.0,1764.0,1703.0,1721.0,1753.0,1763.0,1765.0,69.21846008300781,11.636157989501953,-76.04837036132812,Left
2560.5439453125,133784,1,1775.0,1756.0,1752.0,1725.0,1814.0,1751.0,1763.0,1746.0,69.21846008300781,11.636157989501953,-76.04837036132812,Left
2562.5439453125,133784,1,1751.0,1755.0,1735.0,1639.0,1753.0,1753.0,1763.0,1742.0,69.21846008300781,11.636157989501953,-76.04837036132812,Left
2565.39599609375,133785,1,1735.0,1752.0,1727.0,1595.0,1691.0,1753.0,1763.0,1733.0,69.21846008300781,11.636157989501953,-76.04837036132812,Left
2567.39599609375,133785,1,1741.0,1756.0,1764.0,1678.0,1693.0,1751.0,1765.0,1755.0,69.21846008300781,11.636157989501953,-76.04837036132812,Left
2569.39599609375,133785,1,1752.0,1753.0,1771.0,1723.0,1591.0,1747.0,1765.0,1763.0,69.21846008300781,11.636157989501953,-76.04837036132812,Left
2571.39599609375,133785,1,1773.0,1757.0,1774.0,1679.0,1739.0,1755.0,1763.0,1726.0,69.21846008300781,11.636157989501953,-76.04837036132812,Left
2573.39599609375,133785,1,1800.0,1757.0,1740.0,1739.0,1863.0,1750.0,1761.0,1790.0,69.21846008300781,11.636157989501953,-76.04837036132812,Left
2573.781005859375,133786,1,1805.0,1757.0,1759.0,1708.0,1877.0,1749.0,1753.0,1737.0,69.21846008300781,11.636157989501953,-76.04837036132812,Left
2575.781005859375,133786,1,1810.0,1757.0,1739.0,1827.0,1933.0,1751.0,1763.0,1751.0,69.21846008300781,11.636157989501953,-76.04837036132812,Left
2577.781005859375,133786,1,1805.0,1756.0,1753.0,1819.0,1707.0,1753.0,1757.0,1765.0,69.21846008300781,11.636157989501953,-76.04837036132812,Left
2579.781005859375,133786,1,1781.0,1756.0,1765.0,1865.0,1597.0,1755.0,1763.0,1755.0,69.21846008300781,11.636157989501953,-76.04837036132812,Left
2581.781005859375,133786,1,1759.0,1756.0,1751.0,1890.0,1827.0,1754.0,1763.0,1749.0,69.21846008300781,11.636157989501953,-76.04837036132812,Left
2583.953857421875,133787,1,1741.0,1753.0,1735.0,1965.0,1707.0,1751.0,1762.0,1756.0,69.21846008300781,11.636157989501953,-76.04837036132812,Left
2585.953857421875,133787,1,1736.0,1755.0,1753.0,1919.0,1709.0,1754.0,1759.0,1755.0,69.21846008300781,11.636157989501953,-76.04837036132812,Left
2587.953857421875,133787,1,1749.0,1756.0,1771.0,1900.0,1707.0,1753.0,1759.0,1755.0,69.21846008300781,11.636157989501953,-76.04837036132812,Left
2589.953857421875,133787,1,1781.0,1757.0,1753.0,1843.0,1751.0,1752.0,1759.0,1747.0,69.21846008300781,11.636157989501953,-76.04837036132812,Left
2591.953857421875,133787,1,1800.0,1759.0,1757.0,1769.0,1703.0,1754.0,1763.0,1741.0,69.21846008300781,11.636157989501953,-76.04837036132812,Left
2597.12109375,133788,1,1815.0,1757.0,1759.0,1646.0,1811.0,1756.0,1755.0,1749.0,69.21846008300781,11.636157989501953,-76.04837036132812,Left
2599.12109375,133788,1,1816.0,1757.0,1767.0,1595.0,1799.0,1753.0,1759.0,1755.0,69.21846008300781,11.636157989501953,-76.04837036132812,Left
2601.12109375,133788,1,1804.0,1756.0,1754.0,1677.0,1636.0,1753.0,1759.0,1755.0,69.21846008300781,11.636157989501953,-76.04837036132812,Left
2603.12109375,133788,1,1779.0,1756.0,1765.0,1685.0,1851.0,1751.0,1763.0,1751.0,69.21846008300781,11.636157989501953,-76.04837036132812,Left
2605.12109375,133788,1,1761.0,1755.0,1749.0,1781.0,1755.0,1749.0,1763.0,1737.0,69.21846008300781,11.636157989501953,-76.04837036132812,Left
2602.666015625,133789,1,1739.0,1749.0,1748.0,1807.0,1693.0,1752.0,1757.0,1751.0,69.21846008300781,11.636157989501953,-76.04837036132812,Left
2604.666015625,133789,1,1736.0,1751.0,1758.0,1715.0,1845.0,1753.0,1763.0,1717.0,69.21846008300781,11.636157989501953,-76.04837036132812,Left
2606.666015625,133789,1,1750.0,1755.0,1741.0,1717.0,1751.0,1752.0,1763.0,1756.0,69.21846008300781,11.636157989501953,-76.04837036132812,Left
2608.666015625,133789,1,1775.0,1755.0,1758.0,1791.0,1655.0,1748.0,1764.0,1750.0,69.21846008300781,11.636157989501953,-76.04837036132812,Left
2610.666015625,133789,1,1799.0,1755.0,1759.0,1823.0,1708.0,1753.0,1756.0,1742.0,76.87599182128906,10.619173049926758,-58.702476501464844,Left
2612.634033203125,133790,1,1812.0,1753.0,1763.0,1783.0,1803.0,1753.0,1765.0,1741.0,76.87599182128906,10.619173049926758,-58.702476501464844,Left
2614.634033203125,133790,1,1813.0,1755.0,1759.0,1811.0,1875.0,1753.0,1763.0,1755.0,76.87599182128906,10.619173049926758,-58.702476501464844,Left
2616.634033203125,133790,1,1800.0,1755.0,1759.0,1823.0,1779.0,1752.0,1758.0,1747.0,76.87599182128906,10.619173049926758,-58.702476501464844,Left
2618.634033203125,133790,1,1775.0,1757.0,1743.0,1865.0,1635.0,1752.0,1765.0,1757.0,76.87599182128906,10.619173049926758,-58.702476501464844,Left
2620.634033203125,133790,1,1752.0,1753.0,1757.0,1786.0,1853.0,1753.0,1763.0,1739.0,76.87599182128906,10.619173049926758,-58.702476501464844,Left
2622.706787109375,133791,1,1737.0,1753.0,1719.0,1761.0,1881.0,1749.0,1763.0,1724.0,76.87599182128906,10.619173049926758,-58.702476501464844,Left
2624.706787109375,133791,1,1726.0,1755.0,1775.0,1753.0,1710.0,1752.0,1759.0,1773.0,76.87599182128906,10.619173049926758,-58.702476501464844,Left
2626.706787109375,133791,1,1745.0,1757.0,1771.0,1833.0,1810.0,1753.0,1764.0,1751.0,76.87599182128906,10.619173049926758,-58.702476501464844,Left
2628.706787109375,133791,1,1773.0,1754.0,1767.0,1803.0,1661.0,1753.0,1763.0,1747.0,76.87599182128906,10.619173049926758,-58.702476501464844,Left
2630.706787109375,133791,1,1791.0,1756.0,1771.0,1738.0,1655.0,1753.0,1759.0,1748.0,76.87599182128906,10.619173049926758,-58.702476501464844,Left
2635.921875,133792,1,1807.0,1755.0,1768.0,1772.0,1999.0,1752.0,1759.0,1745.0,76.87599182128906,10.619173049926758,-58.702476501464844,Left
2637.921875,133792,1,1807.0,1757.0,1758.0,1711.0,1755.0,1753.0,1763.0,1765.0,76.87599182128906,10.619173049926758,-58.702476501464844,Left
2639.921875,133792,1,1799.0,1757.0,1753.0,1621.0,1801.0,1753.0,1759.0,1742.0,76.87599182128906,10.619173049926758,-58.702476501464844,Left
2641.921875,133792,1,1773.0,1753.0,1721.0,1675.0,1733.0,1755.0,1763.0,1741.0,76.87599182128906,10.619173049926758,-58.702476501464844,Left
2643.921875,133792,1,1753.0,1753.0,1752.0,1746.0,1704.0,1751.0,1757.0,1763.0,76.87599182128906,10.619173049926758,-58.702476501464844,Left
2644.893798828125,133793,1,1728.0,1755.0,1756.0,1823.0,1733.0,1749.0,1761.0,1746.0,76.87599182128906,10.619173049926758,-58.702476501464844,Left
2646.893798828125,133793,1,1727.0,1756.0,1755.0,1775.0,1738.0,1753.0,1765.0,1757.0,76.87599182128906,10.619173049926758,-58.702476501464844,Left
2648.893798828125,133793,1,1745.0,1755.0,1767.0,1703.0,1708.0,1749.0,1758.0,1740.0,76.87599182128906,10.619173049926758,-58.702476501464844,Left
2650.893798828125,133793,1,1767.0,1755.0,1767.0,1660.0,1757.0,1754.0,1759.0,1755.0,76.87599182128906,10.619173049926758,-58.702476501464844,Left
2652.893798828125,133793,1,1798.0,1757.0,1767.0,1739.0,1755.0,1753.0,1763.0,1755.0,76.87599182128906,10.619173049926758,-58.702476501464844,Left
2653.265869140625,133794,1,1805.0,1757.0,1787.0,1683.0,1787.0,1746.0,1755.0,1755.0,76.87599182128906,10.619173049926758,-58.702476501464844,Left
2655.265869140625,133794,1,1805.0,1743.0,1749.0,1607.0,1711.0,1753.0,1759.0,1755.0,76.87599182128906,10.619173049926758,-58.702476501464844,Left
2657.265869140625,133794,1,1800.0,1755.0,1789.0,1660.0,1754.0,1751.0,1763.0,1752.0,76.87599182128906,10.619173049926758,-58.702476501464844,Left
2659.265869140625,133794,1,1774.0,1757.0,1739.0,1771.0,1739.0,1755.0,1759.0,1739.0,76.87599182128906,10.619173049926758,-58.702476501464844,Left
2661.265869140625,133794,1,1753.0,1763.0,1710.0,1798.0,1831.0,1751.0,1765.0,1735.0,76.87599182128906,10.619173049926758,-58.702476501464844,Left
2669.4306640625,133795,1,1735.0,1752.0,1703.0,1785.0,1643.0,1751.0,1765.0,1757.0,76.87599182128906,10.619173049926758,-58.702476501464844,Left
2671.4306640625,133795,1,1727.0,1756.0,1763.0,1819.0,1753.0,1754.0,1759.0,1753.0,76.87599182128906,10.619173049926758,-58.702476501464844,Left
2673.4306640625,133795,1,1743.0,1753.0,1775.0,1866.0,1663.0,1750.0,1763.0,1748.0,76.87599182128906,10.619173049926758,-58.702476501464844,Left
2675.4306640625,133795,1,1762.0,1757.0,1775.0,1807.0,1863.0,1753.0,1765.0,1752.0,76.87599182128906,10.619173049926758,-58.702476501464844,Left
2677.4306640625,133795,1,1789.0,1754.0,1769.0,1816.0,1748.0,1755.0,1763.0,1750.0,76.87599182128906,10.619173049926758,-58.702476501464844,Left
2675.06103515625,133796,1,1801.0,1762.0,1755.0,1883.0,1711.0,1752.0,1758.0,1749.0,76.87599182128906,10.619173049926758,-58.702476501464844,Left
2677.06103515625,133796,1,1804.0,1755.0,1765.0,1805.0,1789.0,1753.0,1764.0,1757.0,73.16075134277344,17.68702507019043,-63.34108352661133,Left
2679.06103515625,133796,1,1789.0,1755.0,1752.0,1741.0,1740.0,1755.0,1763.0,1753.0,73.16075134277344,17.68702507019043,-63.34108352661133,Left
2681.06103515625,133796,1,1771.0,1755.0,1725.0,1780.0,1677.0,1755.0,1759.0,1739.0,73.16075134277344,17.68702507019043,-63.34108352661133,Left
2683.06103515625,133796,1,1751.0,1755.0,1749.0,1802.0,1834.0,1752.0,1763.0,1754.0,73.16075134277344,17.68702507019043,-63.34108352661133,Left
2682.371826171875,133797,1,1723.0,1755.0,1733.0,1891.0,1771.0,1753.0,1758.0,1743.0,73.16075134277344,17.68702507019043,-63.34108352661133,Left
2684.371826171875,133797,1,1726.0,1755.0,1737.0,1847.0,1647.0,1753.0,1764.0,1753.0,73.16075134277344,17.68702507019043,-63.34108352661133,Left
2686.371826171875,133797,1,1741.0,1757.0,1759.0,1722.0,1647.0,1755.0,1763.0,1763.0,73.16075134277344,17.68702507019043,-63.34108352661133,Left
2688.371826171875,133797,1,1765.0,1755.0,1768.0,1705.0,1839.0,1753.0,1763.0,1753.0,73.16075134277344,17.68702507019043,-63.34108352661133,Left
2690.371826171875,133797,1,1787.0,1755.0,1776.0,1702.0,1852.0,1754.0,1759.0,1751.0,73.16075134277344,17.68702507019043,-63.34108352661133,Left
2696.6630859375,133798,1,1802.0,1756.0,1749.0,1689.0,1779.0,1753.0,1758.0,1739.0,73.16075134277344,17.68702507019043,-63.34108352661133,Left
2698.6630859375,133798,1,1803.0,1752.0,1767.0,1695.0,1675.0,1753.0,1764.0,1747.0,73.16075134277344,17.68702507019043,-63.34108352661133,Left
2700.6630859375,133798,1,1798.0,1756.0,1756.0,1708.0,1861.0,1752.0,1762.0,1751.0,73.16075134277344,17.68702507019043,-63.34108352661133,Left
2702.6630859375,133798,1,1771.0,1757.0,1741.0,1745.0,1682.0,1753.0,1763.0,1754.0,73.16075134277344,17.68702507019043,-63.34108352661133,Left
2704.6630859375,133798,1,1751.0,1756.0,1749.0,1749.0,1847.0,1753.0,1763.0,1749.0,73.16075134277344,17.68702507019043,-63.34108352661133,Left
2703.6171875,133799,1,1725.0,1755.0,1749.0,1829.0,1657.0,1753.0,1763.0,1747.0,73.16075134277344,17.68702507019043,-63.34108352661133,Left
2705.6171875,133799,1,1725.0,1753.0,1773.0,1797.0,1689.0,1752.0,1761.0,1759.0,73.16075134277344,17.68702507019043,-63.34108352661133,Left
2707.6171875,133799,1,1736.0,1753.0,1773.0,1743.0,1747.0,1751.0,1757.0,1749.0,73.16075134277344,17.68702507019043,-63.34108352661133,Left
2709.6171875,133799,1,1761.0,1758.0,1775.0,1709.0,1687.0,1753.0,1757.0,1756.0,73.16075134277344,17.68702507019043,-63.34108352661133,Left
2711.6171875,133799,1,1785.0,1755.0,1779.0,1711.0,1727.0,1753.0,1761.0,1751.0,73.16075134277344,17.68702507019043,-63.34108352661133,Left
2713.7978515625,133800,1,1801.0,1743.0,1751.0,1741.0,1703.0,1752.0,1758.0,1741.0,73.16075134277344,17.68702507019043,-63.34108352661133,Left
2715.7978515625,133800,1,1801.0,1755.0,1739.0,1700.0,1919.0,1754.0,1757.0,1749.0,73.16075134277344,17.68702507019043,-63.34108352661133,Left
2717.7978515625,133800,1,1789.0,1755.0,1756.0,1741.0,1757.0,1751.0,1763.0,1741.0,73.16075134277344,17.68702507019043,-63.34108352661133,Left
2719.7978515625,133800,1,1767.0,1757.0,1755.0,1719.0,1773.0,1752.0,1756.0,1758.0,73.16075134277344,17.68702507019043,-63.34108352661133,Left
2721.7978515625,133800,1,1752.0,1751.0,1749.0,1747.0,1739.0,1754.0,1763.0,1748.0,73.16075134277344,17.68702507019043,-63.34108352661133,Left
2723.0107421875,133801,1,1727.0,1754.0,1756.0,1870.0,1619.0,1755.0,1763.0,1749.0,73.16075134277344,17.68702507019043,-63.34108352661133,Left
2725.0107421875,133801,1,1721.0,1755.0,1758.0,1787.0,1805.0,1752.0,1759.0,1748.0,73.16075134277344,17.68702507019043,-63.34108352661133,Left
2727.0107421875,133801,1,1735.0,1755.0,1772.0,1832.0,1720.0,1748.0,1763.0,1755.0,73.16075134277344,17.68702507019043,-63.34108352661133,Left
2729.0107421875,133801,1,1763.0,1755.0,1755.0,1767.0,1699.0,1751.0,1763.0,1740.0,73.16075134277344,17.68702507019043,-63.34108352661133,Left
2731.0107421875,133801,1,1784.0,1757.0,1767.0,1759.0,1755.0,1752.0,1757.0,1757.0,73.16075134277344,17.68702507019043,-63.34108352661133,Left
2736.114990234375,133802,1,1801.0,1755.0,1759.0,1689.0,1767.0,1751.0,1758.0,1753.0,73.16075134277344,17.68702507019043,-63.34108352661133,Left
2738.114990234375,133802,1,1801.0,1755.0,1719.0,1763.0,1741.0,1749.0,1761.0,1753.0,73.16075134277344,17.68702507019043,-63.34108352661133,Left
2740.114990234375,133802,1,1787.0,1757.0,1754.0,1823.0,1673.0,1753.0,1762.0,1749.0,73.16075134277344,17.68702507019043,-63.34108352661133,Left
2742.114990234375,133802,1,1772.0,1757.0,1750.0,1814.0,1675.0,1751.0,1759.0,1748.0,73.16075134277344,17.68702507019043,-63.34108352661133,Left
2744.114990234375,133802,1,1752.0,1755.0,1739.0,1765.0,1938.0,1752.0,1763.0,1737.0,60.85269546508789,17.296995162963867,-83.00947570800781,Left
2742.49609375,133803,1,1724.0,1753.0,1753.0,1772.0,1662.0,1749.0,1757.0,1747.0,60.85269546508789,17.296995162963867,-83.00947570800781,Left
2744.49609375,133803,1,1723.0,1755.0,1767.0,1767.0,1687.0,1753.0,1757.0,1747.0,60.85269546508789,17.296995162963867,-83.00947570800781,Left
2746.49609375,133803,1,1733.0,1756.0,1753.0,1727.0,1775.0,1753.0,1763.0,1749.0,60.85269546508789,17.296995162963867,-83.00947570800781,Left
2748.49609375,133803,1,1756.0,1754.0,1791.0,1741.0,1836.0,1753.0,1757.0,1763.0,60.85269546508789,17.296995162963867,-83.00947570800781,Left
2750.49609375,133803,1,1779.0,1755.0,1779.0,1803.0,1800.0,1753.0,1757.0,1755.0,60.85269546508789,17.296995162963867,-83.00947570800781,Left
2754.767822265625,133804,1,1787.0,1755.0,1761.0,1751.0,1735.0,1753.0,1763.0,1739.0,60.85269546508789,17.296995162963867,-83.00947570800781,Left
2756.767822265625,133804,1,1797.0,1755.0,1749.0,1835.0,1627.0,1753.0,1759.0,1747.0,60.85269546508789,17.296995162963867,-83.00947570800781,Left
2758.767822265625,133804,1,1787.0,1754.0,1749.0,1865.0,1813.0,1752.0,1763.0,1747.0,60.85269546508789,17.296995162963867,-83.00947570800781,Left
2760.767822265625,133804,1,1771.0,1755.0,1747.0,1846.0,1800.0,1752.0,1757.0,1747.0,60.85269546508789,17.296995162963867,-83.00947570800781,Left
2762.767822265625,133804,1,1751.0,1755.0,1753.0,1848.0,1741.0,1750.0,1763.0,1752.0,60.85269546508789,17.296995162963867,-83.00947570800781,Left
2768.332763671875,133805,1,1727.0,1755.0,1739.0,1935.0,1734.0,1754.0,1759.0,1754.0,60.85269546508789,17.296995162963867,-83.00947570800781,Left
2770.332763671875,133805,1,1723.0,1756.0,1773.0,1817.0,1769.0,1752.0,1759.0,1748.0,60.85269546508789,17.296995162963867,-83.00947570800781,Left
2772.332763671875,133805,1,1737.0,1755.0,1771.0,1819.0,1702.0,1753.0,1763.0,1739.0,60.85269546508789,17.296995162963867,-83.00947570800781,Left
2774.332763671875,133805,1,1755.0,1755.0,1770.0,1781.0,1703.0,1751.0,1765.0,1747.0,60.85269546508789,17.296995162963867,-83.00947570800781,Left
2776.332763671875,133805,1,1781.0,1755.0,1751.0,1735.0,1832.0,1753.0,1761.0,1753.0,60.85269546508789,17.296995162963867,-83.00947570800781,Left
2775.756103515625,133806,1,1797.0,1771.0,1771.0,1707.0,1774.0,1753.0,1763.0,1751.0,60.85269546508789,17.296995162963867,-83.00947570800781,Left
2777.756103515625,133806,1,1801.0,1755.0,1757.0,1725.0,1712.0,1753.0,1763.0,1755.0,60.85269546508789,17.296995162963867,-83.00947570800781,Left
2779.756103515625,133806,1,1790.0,1756.0,1757.0,1747.0,1691.0,1751.0,1763.0,1737.0,60.85269546508789,17.296995162963867,-83.00947570800781,Left
2781.756103515625,133806,1,1769.0,1757.0,1720.0,1710.0,1790.0,1753.0,1763.0,1763.0,60.85269546508789,17.296995162963867,-83.00947570800781,Left
2783.756103515625,133806,1,1750.0,1756.0,1755.0,1688.0,1752.0,1753.0,1764.0,1743.0,60.85269546508789,17.296995162963867,-83.00947570800781,Left
2784.016845703125,133807,1,1727.0,1755.0,1747.0,1709.0,1816.0,1752.0,1760.0,1751.0,60.85269546508789,17.296995162963867,-83.00947570800781,Left
2786.016845703125,133807,1,1723.0,1756.0,1748.0,1791.0,1711.0,1751.0,1763.0,1751.0,60.85269546508789,17.296995162963867,-83.00947570800781,Left
2788.016845703125,133807,1,1733.0,1756.0,1755.0,1781.0,1753.0,1752.0,1763.0,1752.0,60.85269546508789,17.296995162963867,-83.00947570800781,Left
2790.016845703125,133807,1,1756.0,1757.0,1779.0,1765.0,1757.0,1753.0,1763.0,1753.0,60.85269546508789,17.296995162963867,-83.00947570800781,Left
2792.016845703125,133807,1,1783.0,1753.0,1767.0,1738.0,1693.0,1753.0,1757.0,1738.0,60.85269546508789,17.296995162963867,-83.00947570800781,Left
2794.027099609375,133808,1,1789.0,1755.0,1757.0,1739.0,1783.0,1753.0,1763.0,1754.0,60.85269546508789,17.296995162963867,-83.00947570800781,Left
2796.027099609375,133808,1,1801.0,1758.0,1757.0,1634.0,1685.0,1751.0,1762.0,1748.0,60.85269546508789,17.296995162963867,-83.00947570800781,Left
2798.027099609375,133808,1,1788.0,1753.0,1750.0,1659.0,1890.0,1752.0,1762.0,1741.0,60.85269546508789,17.296995162963867,-83.00947570800781,Left
2800.027099609375,133808,1,1771.0,1756.0,1751.0,1658.0,1675.0,1752.0,1762.0,1753.0,60.85269546508789,17.296995162963867,-83.00947570800781,Left
2802.027099609375,133808,1,1751.0,1756.0,1755.0,1740.0,1699.0,1751.0,1761.0,1747.0,60.85269546508789,17.296995162963867,-83.00947570800781,Left
2804.743896484375,133809,1,1732.0,1755.0,1762.0,1827.0,1671.0,1753.0,1763.0,1749.0,60.85269546508789,17.296995162963867,-83.00947570800781,Left
2806.743896484375,133809,1,1721.0,1757.0,1743.0,1804.0,2053.0,1751.0,1762.0,1755.0,60.85269546508789,17.296995162963867,-83.00947570800781,Left
2808.743896484375,133809,1,1728.0,1755.0,1765.0,1781.0,1627.0,1752.0,1763.0,1752.0,69.6961898803711,15.394819259643555,-69.57378387451172,Left
2810.743896484375,133809,1,1751.0,1756.0,1763.0,1819.0,1625.0,1752.0,1762.0,1757.0,69.6961898803711,15.394819259643555,-69.57378387451172,Left
2812.743896484375,133809,1,1773.0,1753.0,1775.0,1846.0,1869.0,1751.0,1763.0,1739.0,69.6961898803711,15.394819259643555,-69.57378387451172,Left
2814.7998046875,133810,1,1799.0,1754.0,1753.0,1805.0,1653.0,1754.0,1753.0,1747.0,69.6961898803711,15.394819259643555,-69.57378387451172,Left
2816.7998046875,133810,1,1801.0,1757.0,1754.0,1738.0,1623.0,1754.0,1755.0,1765.0,69.6961898803711,15.394819259643555,-69.57378387451172,Left
2818.7998046875,133810,1,1788.0,1755.0,1759.0,1606.0,1958.0,1753.0,1764.0,1763.0,69.6961898803711,15.394819259643555,-69.57378387451172,Left
2820.7998046875,133810,1,1771.0,1757.0,1733.0,1672.0,1619.0,1754.0,1749.0,1749.0,69.6961898803711,15.394819259643555,-69.57378387451172,Left
2822.7998046875,133810,1,1751.0,1753.0,1749.0,1743.0,1687.0,1755.0,1763.0,1755.0,69.6961898803711,15.394819259643555,-69.57378387451172,Left
2822.77783203125,133811,1,1727.0,1754.0,1751.0,1847.0,1689.0,1747.0,1755.0,1740.0,69.6961898803711,15.394819259643555,-69.57378387451172,Left
2824.77783203125,133811,1,1721.0,1756.0,1759.0,1805.0,1893.0,1750.0,1763.0,1741.0,69.6961898803711,15.394819259643555,-69.57378387451172,Left
2826.77783203125,133811,1,1727.0,1755.0,1752.0,1705.0,1756.0,1753.0,1763.0,1745.0,69.6961898803711,15.394819259643555,-69.57378387451172,Left
2828.77783203125,133811,1,1749.0,1757.0,1762.0,1755.0,1757.0,1755.0,1759.0,1741.0,69.6961898803711,15.394819259643555,-69.57378387451172,Left
2830.77783203125,133811,1,1775.0,1755.0,1755.0,1707.0,1695.0,1755.0,1753.0,1748.0,69.6961898803711,15.394819259643555,-69.57378387451172,Left
2834.64892578125,133812,1,1791.0,1755.0,1787.0,1745.0,1845.0,1751.0,1763.0,1763.0,69.6961898803711,15.394819259643555,-69.57378387451172,Left
2836.64892578125,133812,1,1799.0,1747.0,1757.0,1724.0,1571.0,1752.0,1763.0,1747.0,69.6961898803711,15.394819259643555,-69.57378387451172,Left
2838.64892578125,133812,1,1791.0,1755.0,1763.0,1827.0,1809.0,1755.0,1763.0,1752.0,69.6961898803711,15.394819259643555,-69.57378387451172,Left
2840.64892578125,133812,1,1771.0,1758.0,1767.0,1775.0,1656.0,1752.0,1763.0,1747.0,69.6961898803711,15.394819259643555,-69.57378387451172,Left
2842.64892578125,133812,1,1751.0,1758.0,1770.0,1871.0,1716.0,1749.0,1763.0,1747.0,69.6961898803711,15.394819259643555,-69.57378387451172,Left
2843.9208984375,133813,1,1727.0,1755.0,1750.0,1773.0,1801.0,1753.0,1755.0,1755.0,69.6961898803711,15.394819259643555,-69.57378387451172,Left
2845.9208984375,133813,1,1719.0,1757.0,1723.0,1869.0,1776.0,1754.0,1764.0,1747.0,69.6961898803711,15.394819259643555,-69.57378387451172,Left
2847.9208984375,133813,1,1727.0,1754.0,1689.0,1935.0,1687.0,1752.0,1763.0,1739.0,69.6961898803711,15.394819259643555,-69.57378387451172,Left
2849.9208984375,133813,1,1753.0,1756.0,1783.0,1839.0,1786.0,1753.0,1765.0,1753.0,69.6961898803711,15.394819259643555,-69.57378387451172,Left
2851.9208984375,133813,1,1779.0,1753.0,1763.0,1693.0,1813.0,1753.0,1763.0,1753.0,69.6961898803711,15.394819259643555,-69.57378387451172,Left
2852.885986328125,133814,1,1799.0,1757.0,1765.0,1683.0,1693.0,1753.0,1751.0,1747.0,69.6961898803711,15.394819259643555,-69.57378387451172,Left
2854.885986328125,133814,1,1800.0,1756.0,1763.0,1671.0,1785.0,1753.0,1757.0,1758.0,69.6961898803711,15.394819259643555,-69.57378387451172,Left
2856.885986328125,133814,1,1791.0,1755.0,1801.0,1627.0,1757.0,1753.0,1764.0,1763.0,69.6961898803711,15.394819259643555,-69.57378387451172,Left
2858.885986328125,133814,1,1772.0,1757.0,1761.0,1627.0,1722.0,1753.0,1759.0,1741.0,69.6961898803711,15.394819259643555,-69.57378387451172,Left
2860.885986328125,133814,1,1749.0,1756.0,1736.0,1801.0,1679.0,1753.0,1759.0,1759.0,69.6961898803711,15.394819259643555,-69.57378387451172,Left
2862.73876953125,133815,1,1734.0,1753.0,1719.0,1861.0,1645.0,1755.0,1764.0,1747.0,69.6961898803711,15.394819259643555,-69.57378387451172,Left
2864.73876953125,133815,1,1720.0,1753.0,1755.0,1816.0,1865.0,1755.0,1762.0,1749.0,69.6961898803711,15.394819259643555,-69.57378387451172,Left
2866.73876953125,133815,1,1725.0,1756.0,1752.0,1816.0,1647.0,1749.0,1762.0,1738.0,69.6961898803711,15.394819259643555,-69.57378387451172,Left
2868.73876953125,133815,1,1752.0,1757.0,1773.0,1748.0,1772.0,1752.0,1759.0,1741.0,69.6961898803711,15.394819259643555,-69.57378387451172,Left
2870.73876953125,133815,1,1775.0,1756.0,1769.0,1711.0,1765.0,1755.0,1758.0,1736.0,72.50157928466797,14.15035629272461,-65.30323028564453,Left
2873.05712890625,133816,1,1789.0,1754.0,1766.0,1821.0,1768.0,1751.0,1763.0,1758.0,72.50157928466797,14.15035629272461,-65.30323028564453,Left
2875.05712890625,133816,1,1801.0,1754.0,1758.0,1773.0,1724.0,1754.0,1763.0,1754.0,72.50157928466797,14.15035629272461,-65.30323028564453,Left
2877.05712890625,133816,1,1788.0,1756.0,1741.0,1735.0,1735.0,1751.0,1757.0,1751.0,72.50157928466797,14.15035629272461,-65.30323028564453,Left
2879.05712890625,133816,1,1775.0,1755.0,1752.0,1746.0,1739.0,1753.0,1763.0,1750.0,72.50157928466797,14.15035629272461,-65.30323028564453,Left
2881.05712890625,133816,1,1749.0,1755.0,1749.0,1755.0,1755.0,1751.0,1765.0,1759.0,72.50157928466797,14.15035629272461,-65.30323028564453,Left
2884.123779296875,133817,1,1727.0,1755.0,1755.0,1749.0,1720.0,1753.0,1764.0,1745.0,72.50157928466797,14.15035629272461,-65.30323028564453,Left
2886.123779296875,133817,1,1721.0,1752.0,1763.0,1801.0,1799.0,1753.0,1763.0,1742.0,72.50157928466797,14.15035629272461,-65.30323028564453,Left
2888.123779296875,133817,1,1727.0,1757.0,1783.0,1749.0,1749.0,1752.0,1764.0,1757.0,72.50157928466797,14.15035629272461,-65.30323028564453,Left
2890.123779296875,133817,1,1748.0,1758.0,1766.0,1803.0,1542.0,1752.0,1764.0,1743.0,72.50157928466797,14.15035629272461,-65.30323028564453,Left
2892.123779296875,133817,1,1771.0,1755.0,1766.0,1845.0,1742.0,1753.0,1757.0,1743.0,72.50157928466797,14.15035629272461,-65.30323028564453,Left
2894.634033203125,133818,1,1785.0,1754.0,1759.0,1742.0,1783.0,1749.0,1763.0,1745.0,72.50157928466797,14.15035629272461,-65.30323028564453,Left
2896.634033203125,133818,1,1799.0,1754.0,1758.0,1719.0,1791.0,1753.0,1763.0,1757.0,72.50157928466797,14.15035629272461,-65.30323028564453,Left
2898.634033203125,133818,1,1790.0,1757.0,1739.0,1623.0,1835.0,1753.0,1765.0,1743.0,72.50157928466797,14.15035629272461,-65.30323028564453,Left
2900.634033203125,133818,1,1775.0,1758.0,1755.0,1651.0,1695.0,1753.0,1768.0,1753.0,72.50157928466797,14.15035629272461,-65.30323028564453,Left
2902.634033203125,133818,1,1752.0,1753.0,1752.0,1695.0,1702.0,1754.0,1762.0,1755.0,72.50157928466797,14.15035629272461,-65.30323028564453,Left
2902.62109375,133819,1,1725.0,1752.0,1733.0,1727.0,1762.0,1748.0,1753.0,1749.0,72.50157928466797,14.15035629272461,-65.30323028564453,Left
2904.62109375,133819,1,1718.0,1755.0,1773.0,1765.0,1775.0,1753.0,1763.0,1752.0,72.50157928466797,14.15035629272461,-65.30323028564453,Left
2906.62109375,133819,1,1733.0,1753.0,1757.0,1733.0,1741.0,1753.0,1764.0,1747.0,72.50157928466797,14.15035629272461,-65.30323028564453,Left
2908.62109375,133819,1,1749.0,1755.0,1771.0,1677.0,1755.0,1749.0,1759.0,1751.0,72.50157928466797,14.15035629272461,-65.30323028564453,Left
2910.62109375,133819,1,1771.0,1757.0,1759.0,1662.0,1757.0,1753.0,1759.0,1748.0,72.50157928466797,14.15035629272461,-65.30323028564453,Left
2915.2109375,133820,1,1791.0,1751.0,1746.0,1723.0,1533.0,1751.0,1759.0,1727.0,72.50157928466797,14.15035629272461,-65.30323028564453,Left
2917.2109375,133820,1,1800.0,1755.0,1754.0,1751.0,1845.0,1751.0,1757.0,1763.0,72.50157928466797,14.15035629272461,-65.30323028564453,Left
2919.2109375,133820,1,1789.0,1755.0,1753.0,1809.0,1765.0,1755.0,1759.0,1749.0,72.50157928466797,14.15035629272461,-65.30323028564453,Left
2921.2109375,133820,1,1773.0,1757.0,1799.0,1853.0,1832.0,1752.0,1763.0,1727.0,72.50157928466797,14.15035629272461,-65.30323028564453,Left
2923.2109375,133820,1,1747.0,1755.0,1727.0,1884.0,1811.0,1751.0,1763.0,1759.0,72.50157928466797,14.15035629272461,-65.30323028564453,Left
2924.239990234375,133821,1,1736.0,1759.0,1756.0,1824.0,1711.0,1751.0,1764.0,1771.0,72.50157928466797,14.15035629272461,-65.30323028564453,Left
2926.239990234375,133821,1,1721.0,1754.0,1769.0,1783.0,1766.0,1753.0,1762.0,1749.0,72.50157928466797,14.15035629272461,-65.30323028564453,Left
2928.239990234375,133821,1,1725.0,1755.0,1747.0,1804.0,1427.0,1752.0,1763.0,1711.0,72.50157928466797,14.15035629272461,-65.30323028564453,Left
2930.239990234375,133821,1,1743.0,1755.0,1767.0,1742.0,1951.0,1753.0,1763.0,1723.0,72.50157928466797,14.15035629272461,-65.30323028564453,Left
2932.239990234375,133821,1,1772.0,1756.0,1773.0,1763.0,1727.0,1753.0,1763.0,1753.0,72.50157928466797,14.15035629272461,-65.30323028564453,Left
2934.499755859375,133822,1,1791.0,1755.0,1779.0,1705.0,1779.0,1745.0,1753.0,1743.0,72.50157928466797,14.15035629272461,-65.30323028564453,Left
2936.499755859375,133822,1,1802.0,1755.0,1759.0,1735.0,1753.0,1750.0,1763.0,1749.0,67.76773834228516,15.694276809692383,-73.22348022460938,Left
2938.499755859375,133822,1,1789.0,1755.0,1765.0,1787.0,1735.0,1751.0,1758.0,1741.0,67.76773834228516,15.694276809692383,-73.22348022460938,Left
2940.499755859375,133822,1,1779.0,1752.0,1768.0,1883.0,1737.0,1753.0,1763.0,1755.0,67.76773834228516,15.694276809692383,-73.22348022460938,Left
2942.499755859375,133822,1,1755.0,1755.0,1709.0,1861.0,1747.0,1753.0,1759.0,1750.0,67.76773834228516,15.694276809692383,-73.22348022460938,Left
2944.97265625,133823,1,1733.0,1754.0,1659.0,1784.0,1741.0,1753.0,1762.0,1737.0,67.76773834228516,15.694276809692383,-73.22348022460938,Left
2946.97265625,133823,1,1721.0,1755.0,1748.0,1823.0,1735.0,1751.0,1757.0,1751.0,67.76773834228516,15.694276809692383,-73.22348022460938,Left
2948.97265625,133823,1,1725.0,1756.0,1775.0,1785.0,1748.0,1750.0,1764.0,1751.0,67.76773834228516,15.694276809692383,-73.22348022460938,Left
2950.97265625,133823,1,1743.0,1755.0,1775.0,1723.0,1728.0,1751.0,1763.0,1751.0,67.76773834228516,15.694276809692383,-73.22348022460938,Left
2952.97265625,133823,1,1769.0,1755.0,1767.0,1651.0,1765.0,1753.0,1763.0,1753.0,67.76773834228516,15.694276809692383,-73.22348022460938,Left
2952.656982421875,133824,1,1789.0,1755.0,1767.0,1717.0,1759.0,1752.0,1757.0,1752.0,67.76773834228516,15.694276809692383,-73.22348022460938,Left
2954.656982421875,133824,1,1800.0,1757.0,1767.0,1717.0,1797.0,1742.0,1758.0,1757.0,67.76773834228516,15.694276809692383,-73.22348022460938,Left
2956.656982421875,133824,1,1797.0,1755.0,1759.0,1717.0,1624.0,1753.0,1763.0,1748.0,67.76773834228516,15.694276809692383,-73.22348022460938,Left
2958.656982421875,133824,1,1775.0,1755.0,1753.0,1704.0,1663.0,1751.0,1759.0,1747.0,67.76773834228516,15.694276809692383,-73.22348022460938,Left
2960.656982421875,133824,1,1757.0,1756.0,1727.0,1628.0,1951.0,1753.0,1759.0,1746.0,67.76773834228516,15.694276809692383,-73.22348022460938,Left
2963.98388671875,133825,1,1735.0,1757.0,1756.0,1688.0,1748.0,1751.0,1762.0,1758.0,67.76773834228516,15.694276809692383,-73.22348022460938,Left
2965.98388671875,133825,1,1720.0,1758.0,1755.0,1709.0,1784.0,1753.0,1762.0,1753.0,67.76773834228516,15.694276809692383,-73.22348022460938,Left
2967.98388671875,133825,1,1727.0,1753.0,1773.0,1704.0,1807.0,1753.0,1757.0,1752.0,67.76773834228516,15.694276809692383,-73.22348022460938,Left
2969.98388671875,133825,1,1747.0,1753.0,1770.0,1724.0,1615.0,1753.0,1763.0,1747.0,67.76773834228516,15.694276809692383,-73.22348022460938,Left
2971.98388671875,133825,1,1773.0,1755.0,1771.0,1733.0,1757.0,1754.0,1759.0,1738.0,67.76773834228516,15.694276809692383,-73.22348022460938,Left
2972.90185546875,133826,1,1787.0,1755.0,1753.0,1677.0,1823.0,1753.0,1757.0,1746.0,67.76773834228516,15.694276809692383,-73.22348022460938,Left
2974.90185546875,133826,1,1801.0,1757.0,1765.0,1771.0,1820.0,1752.0,1757.0,1752.0,67.76773834228516,15.694276809692383,-73.22348022460938,Left
2976.90185546875,133826,1,1790.0,1755.0,1755.0,1707.0,1718.0,1752.0,1762.0,1767.0,67.76773834228516,15.694276809692383,-73.22348022460938,Left
2978.90185546875,133826,1,1775.0,1755.0,1747.0,1823.0,1663.0,1749.0,1763.0,1755.0,67.76773834228516,15.694276809692383,-73.22348022460938,Left
2980.90185546875,133826,1,1753.0,1755.0,1751.0,1840.0,1657.0,1751.0,1757.0,1751.0,67.76773834228516,15.694276809692383,-73.22348022460938,Left
2982.660888671875,133827,1,1719.0,1757.0,1737.0,1838.0,1822.0,1753.0,1763.0,1751.0,67.76773834228516,15.694276809692383,-73.22348022460938,Left
2984.660888671875,133827,1,1721.0,1755.0,1770.0,1819.0,1741.0,1753.0,1758.0,1755.0,67.76773834228516,15.694276809692383,-73.22348022460938,Left
2986.660888671875,133827,1,1725.0,1755.0,1747.0,1706.0,1785.0,1753.0,1763.0,1725.0,67.76773834228516,15.694276809692383,-73.22348022460938,Left
2988.660888671875,133827,1,1747.0,1757.0,1767.0,1661.0,1785.0,1753.0,1763.0,1743.0,67.76773834228516,15.694276809692383,-73.22348022460938,Left
2990.660888671875,133827,1,1769.0,1755.0,1755.0,1676.0,1723.0,1752.0,1763.0,1767.0,67.76773834228516,15.694276809692383,-73.22348022460938,Left
2992.98876953125,133828,1,1790.0,1749.0,1763.0,1624.0,1737.0,1753.0,1765.0,1749.0,67.76773834228516,15.694276809692383,-73.22348022460938,Left
2994.98876953125,133828,1,1799.0,1753.0,1755.0,1619.0,1773.0,1751.0,1763.0,1755.0,67.76773834228516,15.694276809692383,-73.22348022460938,Left
2996.98876953125,133828,1,1789.0,1755.0,1752.0,1639.0,1739.0,1753.0,1763.0,1755.0,67.76773834228516,15.694276809692383,-73.22348022460938,Left
2998.98876953125,133828,1,1775.0,1756.0,1755.0,1645.0,1685.0,1751.0,1764.0,1741.0,67.76773834228516,15.694276809692383,-73.22348022460938,Left
3000.98876953125,133828,1,1753.0,1755.0,1741.0,1747.0,1773.0,1752.0,1757.0,1750.0,67.29005432128906,16.00204086303711,-73.53893280029297,Left
3002.550048828125,133829,1,1737.0,1757.0,1751.0,1738.0,1753.0,1752.0,1764.0,1758.0,67.29005432128906,16.00204086303711,-73.53893280029297,Left
3004.550048828125,133829,1,1719.0,1755.0,1767.0,1785.0,1763.0,1754.0,1763.0,1751.0,67.29005432128906,16.00204086303711,-73.53893280029297,Left
3006.550048828125,133829,1,1722.0,1753.0,1765.0,1789.0,1757.0,1754.0,1757.0,1747.0,67.29005432128906,16.00204086303711,-73.53893280029297,Left
3008.550048828125,133829,1,1742.0,1753.0,1755.0,1877.0,1702.0,1753.0,1762.0,1747.0,67.29005432128906,16.00204086303711,-73.53893280029297,Left
3010.550048828125,133829,1,1771.0,1756.0,1783.0,1817.0,1705.0,1753.0,1765.0,1752.0,67.29005432128906,16.00204086303711,-73.53893280029297,Left
3012.59716796875,133830,1,1783.0,1758.0,1756.0,1807.0,1899.0,1754.0,1759.0,1737.0,67.29005432128906,16.00204086303711,-73.53893280029297,Left
3014.59716796875,133830,1,1800.0,1754.0,1751.0,1719.0,1676.0,1753.0,1757.0,1754.0,67.29005432128906,16.00204086303711,-73.53893280029297,Left
3016.59716796875,133830,1,1796.0,1757.0,1765.0,1767.0,1742.0,1753.0,1763.0,1747.0,67.29005432128906,16.00204086303711,-73.53893280029297,Left
3018.59716796875,133830,1,1779.0,1755.0,1764.0,1779.0,1677.0,1754.0,1764.0,1759.0,67.29005432128906,16.00204086303711,-73.53893280029297,Left
3020.59716796875,133830,1,1757.0,1756.0,1749.0,1814.0,1849.0,1753.0,1763.0,1753.0,67.29005432128906,16.00204086303711,-73.53893280029297,Left
3022.616943359375,133831,1,1728.0,1761.0,1747.0,1829.0,1755.0,1751.0,1764.0,1739.0,67.29005432128906,16.00204086303711,-73.53893280029297,Left
3024.616943359375,133831,1,1720.0,1753.0,1749.0,1820.0,1679.0,1751.0,1762.0,1751.0,67.29005432128906,16.00204086303711,-73.53893280029297,Left
3026.616943359375,133831,1,1720.0,1755.0,1768.0,1940.0,1643.0,1752.0,1759.0,1747.0,67.29005432128906,16.00204086303711,-73.53893280029297,Left
3028.616943359375,133831,1,1739.0,1754.0,1757.0,1782.0,1788.0,1752.0,1759.0,1756.0,67.29005432128906,16.00204086303711,-73.53893280029297,Left
3030.616943359375,133831,1,1769.0,1756.0,1767.0,1768.0,1692.0,1753.0,1759.0,1746.0,67.29005432128906,16.00204086303711,-73.53893280029297,Left
3032.94580078125,133832,1,1788.0,1752.0,1765.0,1757.0,2039.0,1753.0,1761.0,1753.0,67.29005432128906,16.00204086303711,-73.53893280029297,Left
3034.94580078125,133832,1,1799.0,1755.0,1768.0,1899.0,1655.0,1753.0,1759.0,1751.0,67.29005432128906,16.00204086303711,-73.53893280029297,Left
3036.94580078125,133832,1,1790.0,1755.0,1750.0,1787.0,1553.0,1753.0,1761.0,1735.0,67.29005432128906,16.00204086303711,-73.53893280029297,Left
3038.94580078125,133832,1,1779.0,1755.0,1757.0,1753.0,1783.0,1752.0,1759.0,1753.0,67.29005432128906,16.00204086303711,-73.53893280029297,Left
3040.94580078125,133832,1,1757.0,1755.0,1757.0,1751.0,1881.0,1753.0,1759.0,1756.0,67.29005432128906,16.00204086303711,-73.53893280029297,Left
3042.635009765625,133833,1,1725.0,1755.0,1755.0,1685.0,1749.0,1752.0,1763.0,1751.0,67.29005432128906,16.00204086303711,-73.53893280029297,Left
3044.635009765625,133833,1,1721.0,1754.0,1752.0,1789.0,1746.0,1752.0,1763.0,1752.0,67.29005432128906,16.00204086303711,-73.53893280029297,Left
3046.635009765625,133833,1,1722.0,1753.0,1762.0,1802.0,1735.0,1753.0,1757.0,1749.0,67.29005432128906,16.00204086303711,-73.53893280029297,Left
3048.635009765625,133833,1,1741.0,1753.0,1785.0,1823.0,1738.0,1755.0,1763.0,1750.0,67.29005432128906,16.00204086303711,-73.53893280029297,Left
3050.635009765625,133833,1,1766.0,1757.0,1767.0,1786.0,1726.0,1749.0,1759.0,1753.0,67.29005432128906,16.00204086303711,-73.53893280029297,Left
3054.284912109375,133834,1,1785.0,1766.0,1767.0,1773.0,1743.0,1752.0,1757.0,1753.0,67.29005432128906,16.00204086303711,-73.53893280029297,Left
3056.284912109375,133834,1,1790.0,1756.0,1747.0,1766.0,1789.0,1750.0,1763.0,1743.0,67.29005432128906,16.00204086303711,-73.53893280029297,Left
3058.284912109375,133834,1,1791.0,1757.0,1751.0,1791.0,1759.0,1753.0,1763.0,1755.0,67.29005432128906,16.00204086303711,-73.53893280029297,Left
3060.284912109375,133834,1,1781.0,1755.0,1753.0,1747.0,1727.0,1754.0,1758.0,1747.0,67.29005432128906,16.00204086303711,-73.53893280029297,Left
3062.284912109375,133834,1,1755.0,1753.0,1762.0,1803.0,1752.0,1755.0,1755.0,1749.0,67.29005432128906,16.00204086303711,-73.53893280029297,Left
3074.27392578125,133835,1,1736.0,1757.0,1752.0,1747.0,1805.0,1754.0,1763.0,1749.0,67.29005432128906,16.00204086303711,-73.53893280029297,Left
3076.27392578125,133835,1,1719.0,1752.0,1759.0,1821.0,1647.0,1753.0,1762.0,1763.0,67.29005432128906,16.00204086303711,-73.53893280029297,Left
3078.27392578125,133835,1,1720.0,1756.0,1753.0,1637.0,1801.0,1754.0,1765.0,1741.0,68.5455093383789,16.401784896850586,-70.9648208618164,Left
3080.27392578125,133835,1,1741.0,1756.0,1757.0,1661.0,1657.0,1752.0,1763.0,1749.0,68.5455093383789,16.401784896850586,-70.9648208618164,Left
3082.27392578125,133835,1,1769.0,1756.0,1783.0,1711.0,1727.0,1753.0,1759.0,1742.0,68.5455093383789,16.401784896850586,-70.9648208618164,Left
3076.1708984375,133836,1,1785.0,1756.0,1763.0,1691.0,1832.0,1754.0,1759.0,1740.0,68.5455093383789,16.401784896850586,-70.9648208618164,Left
3078.1708984375,133836,1,1801.0,1755.0,1765.0,1715.0,1762.0,1751.0,1763.0,1755.0,68.5455093383789,16.401784896850586,-70.9648208618164,Left
3080.1708984375,133836,1,1797.0,1754.0,1754.0,1683.0,1706.0,1754.0,1757.0,1749.0,68.5455093383789,16.401784896850586,-70.9648208618164,Left
3082.1708984375,133836,1,1775.0,1753.0,1753.0,1677.0,1789.0,1752.0,1763.0,1752.0,68.5455093383789,16.401784896850586,-70.9648208618164,Left
3084.1708984375,133836,1,1755.0,1755.0,1740.0,1811.0,1723.0,1752.0,1763.0,1743.0,68.5455093383789,16.401784896850586,-70.9648208618164,Left
3082.829833984375,133837,1,1738.0,1756.0,1737.0,1775.0,1737.0,1753.0,1763.0,1755.0,68.5455093383789,16.401784896850586,-70.9648208618164,Left
3084.829833984375,133837,1,1718.0,1755.0,1749.0,1823.0,1685.0,1753.0,1766.0,1747.0,68.5455093383789,16.401784896850586,-70.9648208618164,Left
3086.829833984375,133837,1,1723.0,1755.0,1773.0,1809.0,1800.0,1749.0,1763.0,1749.0,68.5455093383789,16.401784896850586,-70.9648208618164,Left
3088.829833984375,133837,1,1735.0,1753.0,1768.0,1804.0,1815.0,1752.0,1763.0,1752.0,68.5455093383789,16.401784896850586,-70.9648208618164,Left
3090.829833984375,133837,1,1767.0,1755.0,1769.0,1789.0,1755.0,1751.0,1764.0,1748.0,68.5455093383789,16.401784896850586,-70.9648208618164,Left
3092.73779296875,133838,1,1771.0,1750.0,1771.0,1669.0,1735.0,1753.0,1759.0,1755.0,68.5455093383789,16.401784896850586,-70.9648208618164,Left
3094.73779296875,133838,1,1799.0,1755.0,1752.0,1694.0,1723.0,1753.0,1757.0,1737.0,68.5455093383789,16.401784896850586,-70.9648208618164,Left
3096.73779296875,133838,1,1789.0,1755.0,1735.0,1703.0,1813.0,1754.0,1758.0,1757.0,68.5455093383789,16.401784896850586,-70.9648208618164,Left
3098.73779296875,133838,1,1782.0,1753.0,1751.0,1801.0,1741.0,1751.0,1763.0,1765.0,68.5455093383789,16.401784896850586,-70.9648208618164,Left
3100.73779296875,133838,1,1759.0,1757.0,1762.0,1801.0,1749.0,1755.0,1757.0,1749.0,68.5455093383789,16.401784896850586,-70.9648208618164,Left
3102.72705078125,133839,1,1737.0,1755.0,1747.0,1755.0,1724.0,1752.0,1764.0,1753.0,68.5455093383789,16.401784896850586,-70.9648208618164,Left
3104.72705078125,133839,1,1723.0,1751.0,1753.0,1679.0,1873.0,1752.0,1763.0,1755.0,68.5455093383789,16.401784896850586,-70.9648208618164,Left
3106.72705078125,133839,1,1723.0,1754.0,1761.0,1673.0,1757.0,1752.0,1763.0,1749.0,68.5455093383789,16.401784896850586,-70.9648208618164,Left
3108.72705078125,133839,1,1739.0,1755.0,1765.0,1627.0,1771.0,1753.0,1762.0,1747.0,68.5455093383789,16.401784896850586,-70.9648208618164,Left
3110.72705078125,133839,1,1763.0,1755.0,1769.0,1727.0,1803.0,1752.0,1763.0,1735.0,68.5455093383789,16.401784896850586,-70.9648208618164,Left
3112.576904296875,133840,1,1784.0,1754.0,1765.0,1771.0,1741.0,1751.0,1763.0,1741.0,68.5455093383789,16.401784896850586,-70.9648208618164,Left
3114.576904296875,133840,1,1799.0,1754.0,1771.0,1738.0,1757.0,1753.0,1757.0,1755.0,68.5455093383789,16.401784896850586,-70.9648208618164,Left
3116.576904296875,133840,1,1790.0,1755.0,1750.0,1717.0,1766.0,1753.0,1763.0,1742.0,68.5455093383789,16.401784896850586,-70.9648208618164,Left
3118.576904296875,133840,1,1783.0,1752.0,1726.0,1787.0,1695.0,1752.0,1763.0,1739.0,68.5455093383789,16.401784896850586,-70.9648208618164,Left
3120.576904296875,133840,1,1755.0,1757.0,1751.0,1863.0,1725.0,1751.0,1763.0,1748.0,68.5455093383789,16.401784896850586,-70.9648208618164,Left
3122.789794921875,133841,1,1724.0,1757.0,1771.0,1895.0,1786.0,1752.0,1763.0,1765.0,68.5455093383789,16.401784896850586,-70.9648208618164,Left
3124.789794921875,133841,1,1721.0,1756.0,1749.0,1895.0,1720.0,1753.0,1763.0,1746.0,68.5455093383789,16.401784896850586,-70.9648208618164,Left
3126.789794921875,133841,1,1723.0,1757.0,1769.0,1801.0,1786.0,1753.0,1763.0,1762.0,68.5455093383789,16.401784896850586,-70.9648208618164,Left
3128.789794921875,133841,1,1737.0,1753.0,1775.0,1765.0,1726.0,1752.0,1763.0,1747.0,68.5455093383789,16.401784896850586,-70.9648208618164,Left
3130.789794921875,133841,1,1765.0,1756.0,1774.0,1721.0,1803.0,1754.0,1758.0,1752.0,67.26934814453125,16.778871536254883,-72.5870590209961,Left
3132.618896484375,133842,1,1783.0,1756.0,1783.0,1646.0,1789.0,1753.0,1757.0,1747.0,67.26934814453125,16.778871536254883,-72.5870590209961,Left
3134.618896484375,133842,1,1797.0,1755.0,1779.0,1689.0,1739.0,1752.0,1763.0,1737.0,67.26934814453125,16.778871536254883,-72.5870590209961,Left
3136.618896484375,133842,1,1797.0,1755.0,1727.0,1751.0,1748.0,1750.0,1757.0,1755.0,67.26934814453125,16.778871536254883,-72.5870590209961,Left
3138.618896484375,133842,1,1783.0,1755.0,1703.0,1735.0,1709.0,1749.0,1759.0,1747.0,67.26934814453125,16.778871536254883,-72.5870590209961,Left
3140.618896484375,133842,1,1759.0,1756.0,1727.0,1773.0,1822.0,1753.0,1759.0,1748.0,67.26934814453125,16.778871536254883,-72.5870590209961,Left
3142.680908203125,133843,1,1741.0,1752.0,1766.0,1784.0,1803.0,1753.0,1763.0,1757.0,67.26934814453125,16.778871536254883,-72.5870590209961,Left
3144.680908203125,133843,1,1723.0,1755.0,1768.0,1845.0,1684.0,1751.0,1758.0,1753.0,67.26934814453125,16.778871536254883,-72.5870590209961,Left
3146.680908203125,133843,1,1722.0,1754.0,1765.0,1814.0,1739.0,1753.0,1757.0,1747.0,67.26934814453125,16.778871536254883,-72.5870590209961,Left
3148.680908203125,133843,1,1737.0,1753.0,1752.0,1789.0,1693.0,1753.0,1757.0,1741.0,67.26934814453125,16.778871536254883,-72.5870590209961,Left
3150.680908203125,133843,1,1764.0,1754.0,1767.0,1799.0,1635.0,1754.0,1763.0,1747.0,67.26934814453125,16.778871536254883,-72.5870590209961,Left
3152.81787109375,133844,1,1788.0,1753.0,1767.0,1815.0,1963.0,1752.0,1762.0,1759.0,67.26934814453125,16.778871536254883,-72.5870590209961,Left
3154.81787109375,133844,1,1791.0,1753.0,1781.0,1907.0,1903.0,1753.0,1762.0,1755.0,67.26934814453125,16.778871536254883,-72.5870590209961,Left
3156.81787109375,133844,1,1797.0,1756.0,1755.0,1813.0,1701.0,1754.0,1759.0,1748.0,67.26934814453125,16.778871536254883,-72.5870590209961,Left
3158.81787109375,133844,1,1783.0,1755.0,1756.0,1799.0,1712.0,1755.0,1759.0,1753.0,67.26934814453125,16.778871536254883,-72.5870590209961,Left
3160.81787109375,133844,1,1762.0,1757.0,1749.0,1735.0,1737.0,1753.0,1759.0,1751.0,67.26934814453125,16.778871536254883,-72.5870590209961,Left
3163.1318359375,133845,1,1727.0,1758.0,1739.0,1647.0,1784.0,1751.0,1762.0,1745.0,67.26934814453125,16.778871536254883,-72.5870590209961,Left
3165.1318359375,133845,1,1720.0,1754.0,1742.0,1722.0,1762.0,1751.0,1763.0,1749.0,67.26934814453125,16.778871536254883,-72.5870590209961,Left
3167.1318359375,133845,1,1717.0,1755.0,1770.0,1741.0,1751.0,1753.0,1763.0,1755.0,67.26934814453125,16.778871536254883,-72.5870590209961,Left
3169.1318359375,133845,1,1736.0,1755.0,1753.0,1781.0,1720.0,1751.0,1757.0,1749.0,67.26934814453125,16.778871536254883,-72.5870590209961,Left
3171.1318359375,133845,1,1759.0,1755.0,1763.0,1699.0,1545.0,1751.0,1759.0,1733.0,67.26934814453125,16.778871536254883,-72.5870590209961,Left
3172.439208984375,133846,1,1782.0,1757.0,1767.0,1669.0,1913.0,1753.0,1762.0,1747.0,67.26934814453125,16.778871536254883,-72.5870590209961,Left
3174.439208984375,133846,1,1798.0,1755.0,1758.0,1635.0,1733.0,1753.0,1757.0,1757.0,67.26934814453125,16.778871536254883,-72.5870590209961,Left
3176.439208984375,133846,1,1790.0,1756.0,1765.0,1549.0,1756.0,1754.0,1757.0,1755.0,67.26934814453125,16.778871536254883,-72.5870590209961,Left
3178.439208984375,133846,1,1781.0,1755.0,1747.0,1647.0,1765.0,1750.0,1759.0,1750.0,67.26934814453125,16.778871536254883,-72.5870590209961,Left
3180.439208984375,133846,1,1757.0,1757.0,1742.0,1723.0,1780.0,1752.0,1762.0,1747.0,67.26934814453125,16.778871536254883,-72.5870590209961,Left
3182.639892578125,133847,1,1735.0,1752.0,1725.0,1669.0,1767.0,1751.0,1757.0,1739.0,67.26934814453125,16.778871536254883,-72.5870590209961,Left
3184.639892578125,133847,1,1721.0,1755.0,1748.0,1789.0,1711.0,1753.0,1763.0,1745.0,67.26934814453125,16.778871536254883,-72.5870590209961,Left
3186.639892578125,133847,1,1720.0,1756.0,1757.0,1799.0,1725.0,1754.0,1761.0,1751.0,67.26934814453125,16.778871536254883,-72.5870590209961,Left
3188.639892578125,133847,1,1735.0,1753.0,1773.0,1735.0,1621.0,1752.0,1755.0,1755.0,67.26934814453125,16.778871536254883,-72.5870590209961,Left
3190.639892578125,133847,1,1757.0,1755.0,1778.0,1677.0,1746.0,1754.0,1758.0,1740.0,67.26934814453125,16.778871536254883,-72.5870590209961,Left
3204.863037109375,133848,1,1788.0,1757.0,1775.0,1707.0,1927.0,1754.0,1759.0,1758.0,67.26934814453125,16.778871536254883,-72.5870590209961,Left
3206.863037109375,133848,1,1791.0,1757.0,1757.0,1790.0,1767.0,1751.0,1765.0,1751.0,67.49717712402344,16.844709396362305,-72.52819061279297,Left
3208.863037109375,133848,1,1791.0,1755.0,1762.0,1791.0,1737.0,1750.0,1761.0,1757.0,67.49717712402344,16.844709396362305,-72.52819061279297,Left
3210.863037109375,133848,1,1785.0,1757.0,1759.0,1831.0,1735.0,1753.0,1759.0,1743.0,67.49717712402344,16.844709396362305,-72.52819061279297,Left
3212.863037109375,133848,1,1762.0,1756.0,1749.0,1773.0,1757.0,1752.0,1763.0,1751.0,67.49717712402344,16.844709396362305,-72.52819061279297,Left
3205.83984375,133849,1,1763.0,1752.0,1727.0,1839.0,1695.0,1739.0,1757.0,1741.0,67.49717712402344,16.844709396362305,-72.52819061279297,Left
3207.83984375,133849,1,1719.0,1755.0,1759.0,1913.0,1761.0,1752.0,1763.0,1751.0,67.49717712402344,16.844709396362305,-72.52819061279297,Left
3209.83984375,133849,1,1717.0,1753.0,1755.0,1913.0,1740.0,1753.0,1763.0,1751.0,67.49717712402344,16.844709396362305,-72.52819061279297,Left
3211.83984375,133849,1,1733.0,1755.0,1755.0,1805.0,1785.0,1755.0,1763.0,1741.0,67.49717712402344,16.844709396362305,-72.52819061279297,Left
3213.83984375,133849,1,1763.0,1755.0,1771.0,1755.0,1689.0,1755.0,1759.0,1747.0,67.49717712402344,16.844709396362305,-72.52819061279297,Left
3214.350830078125,133850,1,1773.0,1759.0,1771.0,1831.0,1772.0,1753.0,1757.0,1741.0,67.49717712402344,16.844709396362305,-72.52819061279297,Left
3216.350830078125,133850,1,1791.0,1755.0,1763.0,1783.0,1765.0,1753.0,1762.0,1755.0,67.49717712402344,16.844709396362305,-72.52819061279297,Left
3218.350830078125,133850,1,1797.0,1758.0,1738.0,1716.0,1655.0,1752.0,1757.0,1739.0,67.49717712402344,16.844709396362305,-72.52819061279297,Left
3220.350830078125,133850,1,1785.0,1755.0,1765.0,1741.0,1787.0,1754.0,1761.0,1753.0,67.49717712402344,16.844709396362305,-72.52819061279297,Left
3222.350830078125,133850,1,1759.0,1755.0,1752.0,1823.0,1619.0,1753.0,1765.0,1753.0,67.49717712402344,16.844709396362305,-72.52819061279297,Left
3224.67578125,133851,1,1741.0,1746.0,1749.0,1711.0,1816.0,1751.0,1755.0,1741.0,67.49717712402344,16.844709396362305,-72.52819061279297,Left
3226.67578125,133851,1,1722.0,1755.0,1754.0,1701.0,1861.0,1753.0,1763.0,1750.0,67.49717712402344,16.844709396362305,-72.52819061279297,Left
3228.67578125,133851,1,1721.0,1755.0,1749.0,1779.0,1719.0,1755.0,1761.0,1733.0,67.49717712402344,16.844709396362305,-72.52819061279297,Left
3230.67578125,133851,1,1736.0,1755.0,1767.0,1691.0,1745.0,1752.0,1757.0,1755.0,67.49717712402344,16.844709396362305,-72.52819061279297,Left
3232.67578125,133851,1,1761.0,1757.0,1769.0,1624.0,1783.0,1752.0,1756.0,1749.0,67.49717712402344,16.844709396362305,-72.52819061279297,Left
3233.178955078125,133852,1,1767.0,1755.0,1759.0,1670.0,1669.0,1751.0,1752.0,1739.0,67.49717712402344,16.844709396362305,-72.52819061279297,Left
3235.178955078125,133852,1,1797.0,1756.0,1767.0,1725.0,1756.0,1752.0,1756.0,1763.0,67.49717712402344,16.844709396362305,-72.52819061279297,Left
3237.178955078125,133852,1,1797.0,1757.0,1756.0,1673.0,1828.0,1751.0,1762.0,1765.0,67.49717712402344,16.844709396362305,-72.52819061279297,Left
3239.178955078125,133852,1,1786.0,1755.0,1751.0,1725.0,1786.0,1750.0,1763.0,1748.0,67.49717712402344,16.844709396362305,-72.52819061279297,Left
3241.178955078125,133852,1,1766.0,1755.0,1749.0,1805.0,1763.0,1753.0,1762.0,1748.0,67.49717712402344,16.844709396362305,-72.52819061279297,Left
3244.6357421875,133853,1,1736.0,1749.0,1746.0,1835.0,1647.0,1753.0,1763.0,1738.0,67.49717712402344,16.844709396362305,-72.52819061279297,Left
3246.6357421875,133853,1,1721.0,1755.0,1742.0,1767.0,1783.0,1752.0,1763.0,1739.0,67.49717712402344,16.844709396362305,-72.52819061279297,Left
3248.6357421875,133853,1,1721.0,1756.0,1765.0,1839.0,1781.0,1752.0,1759.0,1759.0,67.49717712402344,16.844709396362305,-72.52819061279297,Left
3250.6357421875,133853,1,1733.0,1756.0,1767.0,1867.0,1775.0,1753.0,1763.0,1748.0,67.49717712402344,16.844709396362305,-72.52819061279297,Left
3252.6357421875,133853,1,1756.0,1757.0,1773.0,1845.0,1779.0,1753.0,1763.0,1745.0,67.49717712402344,16.844709396362305,-72.52819061279297,Left
3254.302978515625,133854,1,1783.0,1756.0,1765.0,1868.0,1688.0,1751.0,1759.0,1741.0,67.49717712402344,16.844709396362305,-72.52819061279297,Left
3256.302978515625,133854,1,1791.0,1752.0,1742.0,1818.0,1749.0,1752.0,1763.0,1743.0,67.49717712402344,16.844709396362305,-72.52819061279297,Left
3258.302978515625,133854,1,1788.0,1755.0,1764.0,1866.0,1739.0,1751.0,1757.0,1755.0,67.49717712402344,16.844709396362305,-72.52819061279297,Left
3260.302978515625,133854,1,1785.0,1757.0,1767.0,1811.0,1705.0,1754.0,1763.0,1752.0,67.49717712402344,16.844709396362305,-72.52819061279297,Left
3262.302978515625,133854,1,1765.0,1753.0,1743.0,1686.0,1847.0,1753.0,1758.0,1752.0,68.30717468261719,16.67877197265625,-71.56281280517578,Left
3264.541015625,133855,1,1741.0,1753.0,1757.0,1835.0,1763.0,1747.0,1752.0,1747.0,68.30717468261719,16.67877197265625,-71.56281280517578,Left
3266.541015625,133855,1,1723.0,1753.0,1759.0,1781.0,1792.0,1753.0,1759.0,1741.0,68.30717468261719,16.67877197265625,-71.56281280517578,Left
3268.541015625,133855,1,1717.0,1755.0,1771.0,1771.0,1639.0,1751.0,1763.0,1757.0,68.30717468261719,16.67877197265625,-71.56281280517578,Left
3270.541015625,133855,1,1735.0,1753.0,1757.0,1745.0,1753.0,1753.0,1761.0,1741.0,68.30717468261719,16.67877197265625,-71.56281280517578,Left
3272.541015625,133855,1,1759.0,1755.0,1757.0,1685.0,1807.0,1753.0,1759.0,1748.0,68.30717468261719,16.67877197265625,-71.56281280517578,Left
3275.18017578125,133856,1,1781.0,1759.0,1761.0,1652.0,1637.0,1754.0,1763.0,1755.0,68.30717468261719,16.67877197265625,-71.56281280517578,Left
3277.18017578125,133856,1,1798.0,1745.0,1765.0,1644.0,1829.0,1752.0,1765.0,1751.0,68.30717468261719,16.67877197265625,-71.56281280517578,Left
3279.18017578125,133856,1,1790.0,1755.0,1752.0,1669.0,1815.0,1753.0,1757.0,1745.0,68.30717468261719,16.67877197265625,-71.56281280517578,Left
3281.18017578125,133856,1,1785.0,1757.0,1742.0,1750.0,1686.0,1751.0,1763.0,1748.0,68.30717468261719,16.67877197265625,-71.56281280517578,Left
3283.18017578125,133856,1,1762.0,1756.0,1748.0,1897.0,1738.0,1751.0,1763.0,1750.0,68.30717468261719,16.67877197265625,-71.56281280517578,Left
3282.806884765625,133857,1,1745.0,1752.0,1747.0,1870.0,1719.0,1753.0,1763.0,1747.0,68.30717468261719,16.67877197265625,-71.56281280517578,Left
3284.806884765625,133857,1,1719.0,1746.0,1751.0,1847.0,1691.0,1753.0,1763.0,1747.0,68.30717468261719,16.67877197265625,-71.56281280517578,Left
3286.806884765625,133857,1,1717.0,1755.0,1757.0,1815.0,1835.0,1751.0,1757.0,1741.0,68.30717468261719,16.67877197265625,-71.56281280517578,Left
3288.806884765625,133857,1,1725.0,1753.0,1767.0,1768.0,1837.0,1753.0,1759.0,1767.0,68.30717468261719,16.67877197265625,-71.56281280517578,Left
3290.806884765625,133857,1,1758.0,1754.0,1776.0,1721.0,1751.0,1753.0,1757.0,1752.0,68.30717468261719,16.67877197265625,-71.56281280517578,Left
3294.010986328125,133858,1,1775.0,1763.0,1764.0,1686.0,1727.0,1753.0,1759.0,1746.0,68.30717468261719,16.67877197265625,-71.56281280517578,Left
3296.010986328125,133858,1,1789.0,1752.0,1766.0,1669.0,1728.0,1753.0,1762.0,1749.0,68.30717468261719,16.67877197265625,-71.56281280517578,Left
3298.010986328125,133858,1,1789.0,1755.0,1749.0,1545.0,1723.0,1753.0,1765.0,1741.0,68.30717468261719,16.67877197265625,-71.56281280517578,Left
3300.010986328125,133858,1,1787.0,1755.0,1754.0,1515.0,1822.0,1755.0,1763.0,1749.0,68.30717468261719,16.67877197265625,-71.56281280517578,Left
3302.010986328125,133858,1,1766.0,1755.0,1741.0,1641.0,1682.0,1753.0,1757.0,1756.0,68.30717468261719,16.67877197265625,-71.56281280517578,Left
3306.1220703125,133859,1,1735.0,1753.0,1753.0,1678.0,1895.0,1750.0,1755.0,1762.0,68.30717468261719,16.67877197265625,-71.56281280517578,Left
3308.1220703125,133859,1,1724.0,1755.0,1763.0,1757.0,1765.0,1753.0,1763.0,1756.0,68.30717468261719,16.67877197265625,-71.56281280517578,Left
3310.1220703125,133859,1,1721.0,1757.0,1751.0,1771.0,1705.0,1755.0,1763.0,1747.0,68.30717468261719,16.67877197265625,-71.56281280517578,Left
3312.1220703125,133859,1,1734.0,1755.0,1751.0,1721.0,1736.0,1750.0,1762.0,1745.0,68.30717468261719,16.67877197265625,-71.56281280517578,Left
3314.1220703125,133859,1,1753.0,1755.0,1769.0,1766.0,1759.0,1753.0,1763.0,1739.0,68.30717468261719,16.67877197265625,-71.56281280517578,Left
3314.7998046875,133860,1,1779.0,1757.0,1765.0,1781.0,1769.0,1754.0,1763.0,1751.0,68.30717468261719,16.67877197265625,-71.56281280517578,Left
3316.7998046875,133860,1,1790.0,1755.0,1779.0,1771.0,1821.0,1751.0,1763.0,1747.0,68.30717468261719,16.67877197265625,-71.56281280517578,Left
3318.7998046875,133860,1,1791.0,1756.0,1747.0,1800.0,1608.0,1751.0,1759.0,1737.0,68.30717468261719,16.67877197265625,-71.56281280517578,Left
3320.7998046875,133860,1,1785.0,1755.0,1754.0,1753.0,1728.0,1754.0,1757.0,1751.0,68.30717468261719,16.67877197265625,-71.56281280517578,Left
3322.7998046875,133860,1,1764.0,1757.0,1749.0,1782.0,1755.0,1753.0,1757.0,1751.0,68.30717468261719,16.67877197265625,-71.56281280517578,Left
3323.457763671875,133861,1,1745.0,1759.0,1752.0,1837.0,1764.0,1747.0,1757.0,1747.0,68.30717468261719,16.67877197265625,-71.56281280517578,Left
3325.457763671875,133861,1,1725.0,1755.0,1752.0,1824.0,1722.0,1749.0,1757.0,1747.0,67.98120880126953,16.687788009643555,-72.17373657226562,Left
3327.457763671875,133861,1,1720.0,1755.0,1753.0,1867.0,1767.0,1753.0,1757.0,1751.0,67.98120880126953,16.687788009643555,-72.17373657226562,Left
3329.457763671875,133861,1,1727.0,1755.0,1772.0,1755.0,1775.0,1755.0,1763.0,1753.0,67.98120880126953,16.687788009643555,-72.17373657226562,Left
3331.457763671875,133861,1,1754.0,1757.0,1781.0,1703.0,1704.0,1753.0,1759.0,1749.0,67.98120880126953,16.687788009643555,-72.17373657226562,Left
3334.335205078125,133862,1,1783.0,1759.0,1768.0,1741.0,1674.0,1751.0,1758.0,1755.0,67.98120880126953,16.687788009643555,-72.17373657226562,Left
3336.335205078125,133862,1,1790.0,1755.0,1755.0,1673.0,2021.0,1753.0,1763.0,1757.0,67.98120880126953,16.687788009643555,-72.17373657226562,Left
3338.335205078125,133862,1,1799.0,1755.0,1757.0,1615.0,1833.0,1753.0,1759.0,1753.0,67.98120880126953,16.687788009643555,-72.17373657226562,Left
3340.335205078125,133862,1,1785.0,1757.0,1748.0,1639.0,1711.0,1755.0,1763.0,1741.0,67.98120880126953,16.687788009643555,-72.17373657226562,Left
3342.335205078125,133862,1,1767.0,1757.0,1734.0,1723.0,1733.0,1753.0,1759.0,1739.0,67.98120880126953,16.687788009643555,-72.17373657226562,Left
3343.66796875,133863,1,1740.0,1759.0,1741.0,1673.0,1735.0,1747.0,1755.0,1745.0,67.98120880126953,16.687788009643555,-72.17373657226562,Left
3345.66796875,133863,1,1725.0,1755.0,1753.0,1627.0,1715.0,1752.0,1763.0,1743.0,67.98120880126953,16.687788009643555,-72.17373657226562,Left
3347.66796875,133863,1,1719.0,1756.0,1757.0,1575.0,1716.0,1752.0,1763.0,1753.0,67.98120880126953,16.687788009643555,-72.17373657226562,Left
3349.66796875,133863,1,1725.0,1754.0,1768.0,1591.0,1787.0,1752.0,1764.0,1755.0,67.98120880126953,16.687788009643555,-72.17373657226562,Left
3351.66796875,133863,1,1749.0,1757.0,1768.0,1673.0,1749.0,1755.0,1759.0,1751.0,67.98120880126953,16.687788009643555,-72.17373657226562,Left
3352.60888671875,133864,1,1774.0,1759.0,1767.0,1780.0,1772.0,1743.0,1757.0,1755.0,67.98120880126953,16.687788009643555,-72.17373657226562,Left
3354.60888671875,133864,1,1789.0,1753.0,1765.0,1862.0,1705.0,1752.0,1763.0,1749.0,67.98120880126953,16.687788009643555,-72.17373657226562,Left
3356.60888671875,133864,1,1797.0,1757.0,1763.0,1981.0,1783.0,1753.0,1763.0,1753.0,67.98120880126953,16.687788009643555,-72.17373657226562,Left
3358.60888671875,133864,1,1785.0,1756.0,1757.0,1975.0,1826.0,1753.0,1765.0,1755.0,67.98120880126953,16.687788009643555,-72.17373657226562,Left
3360.60888671875,133864,1,1767.0,1755.0,1737.0,1967.0,1687.0,1751.0,1762.0,1747.0,67.98120880126953,16.687788009643555,-72.17373657226562,Left
3364.76708984375,133865,1,1739.0,1755.0,1751.0,1879.0,1776.0,1751.0,1763.0,1747.0,67.98120880126953,16.687788009643555,-72.17373657226562,Left
3366.76708984375,133865,1,1726.0,1756.0,1737.0,1902.0,1685.0,1751.0,1764.0,1740.0,67.98120880126953,16.687788009643555,-72.17373657226562,Left
3368.76708984375,133865,1,1719.0,1755.0,1769.0,1835.0,1855.0,1752.0,1764.0,1737.0,67.98120880126953,16.687788009643555,-72.17373657226562,Left
3370.76708984375,133865,1,1726.0,1757.0,1763.0,1823.0,1609.0,1752.0,1761.0,1767.0,67.98120880126953,16.687788009643555,-72.17373657226562,Left
3372.76708984375,133865,1,1752.0,1757.0,1771.0,1785.0,1727.0,1749.0,1765.0,1739.0,67.98120880126953,16.687788009643555,-72.17373657226562,Left
3374.52490234375,133866,1,1749.0,1756.0,1763.0,1737.0,1837.0,1753.0,1755.0,1747.0,67.98120880126953,16.687788009643555,-72.17373657226562,Left
3376.52490234375,133866,1,1786.0,1755.0,1753.0,1758.0,1757.0,1751.0,1763.0,1743.0,67.98120880126953,16.687788009643555,-72.17373657226562,Left
3378.52490234375,133866,1,1798.0,1755.0,1759.0,1786.0,1755.0,1753.0,1759.0,1754.0,67.98120880126953,16.687788009643555,-72.17373657226562,Left
3380.52490234375,133866,1,1787.0,1757.0,1767.0,1745.0,1772.0,1753.0,1763.0,1755.0,67.98120880126953,16.687788009643555,-72.17373657226562,Left
3382.52490234375,133866,1,1765.0,1757.0,1757.0,1783.0,1624.0,1751.0,1757.0,1757.0,67.98120880126953,16.687788009643555,-72.17373657226562,Left
3385.221923828125,133867,1,1743.0,1748.0,1739.0,1868.0,1867.0,1749.0,1753.0,1733.0,67.98120880126953,16.687788009643555,-72.17373657226562,Left
3387.221923828125,133867,1,1725.0,1756.0,1762.0,1759.0,1751.0,1749.0,1758.0,1751.0,67.98120880126953,16.687788009643555,-72.17373657226562,Left
3389.221923828125,133867,1,1719.0,1757.0,1759.0,1684.0,1835.0,1754.0,1764.0,1751.0,67.98120880126953,16.687788009643555,-72.17373657226562,Left
3391.221923828125,133867,1,1726.0,1756.0,1751.0,1699.0,1800.0,1753.0,1763.0,1749.0,67.98120880126953,16.687788009643555,-72.17373657226562,Left
3393.221923828125,133867,1,1749.0,1755.0,1771.0,1701.0,1717.0,1753.0,1761.0,1747.0,68.15404510498047,16.66889762878418,-72.11361694335938,Left
3393.082763671875,133868,1,1773.0,1757.0,1767.0,1647.0,1717.0,1752.0,1758.0,1751.0,68.15404510498047,16.66889762878418,-72.11361694335938,Left
3395.082763671875,133868,1,1787.0,1753.0,1766.0,1623.0,1763.0,1753.0,1761.0,1750.0,68.15404510498047,16.66889762878418,-72.11361694335938,Left
3397.082763671875,133868,1,1798.0,1755.0,1767.0,1661.0,1739.0,1752.0,1759.0,1749.0,68.15404510498047,16.66889762878418,-72.11361694335938,Left
3399.082763671875,133868,1,1785.0,1756.0,1736.0,1700.0,1747.0,1752.0,1762.0,1747.0,68.15404510498047,16.66889762878418,-72.11361694335938,Left
3401.082763671875,133868,1,1769.0,1757.0,1752.0,1755.0,1733.0,1753.0,1759.0,1748.0,68.15404510498047,16.66889762878418,-72.11361694335938,Left
3404.0,133869,1,1747.0,1750.0,1739.0,1845.0,1747.0,1749.0,1764.0,1741.0,68.15404510498047,16.66889762878418,-72.11361694335938,Left
3406.0,133869,1,1726.0,1756.0,1779.0,1737.0,1749.0,1753.0,1763.0,1749.0,68.15404510498047,16.66889762878418,-72.11361694335938,Left
3408.0,133869,1,1721.0,1756.0,1763.0,1807.0,1757.0,1752.0,1762.0,1753.0,68.15404510498047,16.66889762878418,-72.11361694335938,Left
3410.0,133869,1,1724.0,1756.0,1759.0,1832.0,1766.0,1755.0,1763.0,1749.0,68.15404510498047,16.66889762878418,-72.11361694335938,Left
3412.0,133869,1,1752.0,1754.0,1767.0,1783.0,1784.0,1752.0,1763.0,1761.0,68.15404510498047,16.66889762878418,-72.11361694335938,Left
3415.051025390625,133870,1,1774.0,1756.0,1771.0,1707.0,1757.0,1747.0,1755.0,1752.0,68.15404510498047,16.66889762878418,-72.11361694335938,Left
3417.051025390625,133870,1,1789.0,1755.0,1741.0,1741.0,1739.0,1752.0,1759.0,1747.0,68.15404510498047,16.66889762878418,-72.11361694335938,Left
3419.051025390625,133870,1,1797.0,1757.0,1767.0,1803.0,1710.0,1749.0,1763.0,1765.0,68.15404510498047,16.66889762878418,-72.11361694335938,Left
3421.051025390625,133870,1,1788.0,1757.0,1741.0,1774.0,1749.0,1754.0,1762.0,1741.0,68.15404510498047,16.66889762878418,-72.11361694335938,Left
3423.051025390625,133870,1,1771.0,1757.0,1757.0,1837.0,1799.0,1753.0,1763.0,1747.0,68.15404510498047,16.66889762878418,-72.11361694335938,Left
3432.806884765625,133871,1,1747.0,1755.0,1747.0,1851.0,1599.0,1751.0,1759.0,1727.0,68.15404510498047,16.66889762878418,-72.11361694335938,Left
3434.806884765625,133871,1,1721.0,1755.0,1749.0,1865.0,1755.0,1753.0,1759.0,1756.0,68.15404510498047,16.66889762878418,-72.11361694335938,Left
3436.806884765625,133871,1,1719.0,1757.0,1758.0,1847.0,1745.0,1754.0,1763.0,1749.0,68.15404510498047,16.66889762878418,-72.11361694335938,Left
3438.806884765625,133871,1,1726.0,1753.0,1767.0,1754.0,1855.0,1753.0,1762.0,1742.0,68.15404510498047,16.66889762878418,-72.11361694335938,Left
3440.806884765625,133871,1,1749.0,1754.0,1767.0,1762.0,1737.0,1755.0,1763.0,1739.0,68.15404510498047,16.66889762878418,-72.11361694335938,Left
3433.281982421875,133872,1,1776.0,1758.0,1767.0,1781.0,1742.0,1751.0,1762.0,1755.0,68.15404510498047,16.66889762878418,-72.11361694335938,Left
3435.281982421875,133872,1,1797.0,1755.0,1768.0,1828.0,1773.0,1753.0,1759.0,1759.0,68.15404510498047,16.66889762878418,-72.11361694335938,Left
3437.281982421875,133872,1,1789.0,1753.0,1754.0,1771.0,1797.0,1751.0,1763.0,1757.0,68.15404510498047,16.66889762878418,-72.11361694335938,Left
3439.281982421875,133872,1,1785.0,1755.0,1745.0,1772.0,1742.0,1753.0,1763.0,1747.0,68.15404510498047,16.66889762878418,-72.11361694335938,Left
3441.281982421875,133872,1,1771.0,1759.0,1753.0,1769.0,1751.0,1753.0,1763.0,1745.0,68.15404510498047,16.66889762878418,-72.11361694335938,Left
3444.52783203125,133873,1,1735.0,1755.0,1749.0,1721.0,1743.0,1755.0,1763.0,1750.0,68.15404510498047,16.66889762878418,-72.11361694335938,Left
3446.52783203125,133873,1,1724.0,1755.0,1757.0,1737.0,1707.0,1754.0,1763.0,1751.0,68.15404510498047,16.66889762878418,-72.11361694335938,Left
3448.52783203125,133873,1,1718.0,1754.0,1764.0,1746.0,1773.0,1753.0,1757.0,1753.0,68.15404510498047,16.66889762878418,-72.11361694335938,Left
3450.52783203125,133873,1,1721.0,1757.0,1779.0,1635.0,1787.0,1754.0,1762.0,1751.0,68.15404510498047,16.66889762878418,-72.11361694335938,Left
3452.52783203125,133873,1,1749.0,1753.0,1771.0,1597.0,1711.0,1751.0,1763.0,1749.0,68.15404510498047,16.66889762878418,-72.11361694335938,Left
3452.659912109375,133874,1,1779.0,1755.0,1785.0,1619.0,1764.0,1749.0,1743.0,1751.0,68.15404510498047,16.66889762878418,-72.11361694335938,Left
3454.659912109375,133874,1,1789.0,1755.0,1737.0,1733.0,1633.0,1752.0,1759.0,1750.0,68.50895690917969,16.569019317626953,-71.90118408203125,Left
3456.659912109375,133874,1,1800.0,1752.0,1683.0,1835.0,1755.0,1753.0,1757.0,1736.0,68.50895690917969,16.569019317626953,-71.90118408203125,Left
3458.659912109375,133874,1,1789.0,1755.0,1733.0,1837.0,1839.0,1752.0,1757.0,1755.0,68.50895690917969,16.569019317626953,-71.90118408203125,Left
3460.659912109375,133874,1,1770.0,1753.0,1763.0,1835.0,1829.0,1753.0,1759.0,1749.0,68.50895690917969,16.569019317626953,-71.90118408203125,Left
3463.4541015625,133875,1,1739.0,1755.0,1767.0,1769.0,1643.0,1752.0,1762.0,1767.0,68.50895690917969,16.569019317626953,-71.90118408203125,Left
3465.4541015625,133875,1,1726.0,1757.0,1749.0,1735.0,1771.0,1752.0,1762.0,1748.0,68.50895690917969,16.569019317626953,-71.90118408203125,Left
3467.4541015625,133875,1,1721.0,1758.0,1769.0,1869.0,1652.0,1751.0,1764.0,1751.0,68.50895690917969,16.569019317626953,-71.90118408203125,Left
3469.4541015625,133875,1,1723.0,1756.0,1750.0,1870.0,1683.0,1753.0,1763.0,1727.0,68.50895690917969,16.569019317626953,-71.90118408203125,Left
3471.4541015625,133875,1,1747.0,1757.0,1767.0,1783.0,1824.0,1751.0,1764.0,1755.0,68.50895690917969,16.569019317626953,-71.90118408203125,Left
3472.6611328125,133876,1,1773.0,1754.0,1784.0,1693.0,1766.0,1752.0,1755.0,1751.0,68.50895690917969,16.569019317626953,-71.90118408203125,Left
3474.6611328125,133876,1,1788.0,1755.0,1759.0,1684.0,1771.0,1753.0,1763.0,1749.0,68.50895690917969,16.569019317626953,-71.90118408203125,Left
3476.6611328125,133876,1,1799.0,1756.0,1757.0,1683.0,1727.0,1753.0,1763.0,1751.0,68.50895690917969,16.569019317626953,-71.90118408203125,Left
3478.6611328125,133876,1,1789.0,1756.0,1754.0,1738.0,1690.0,1752.0,1763.0,1751.0,68.50895690917969,16.569019317626953,-71.90118408203125,Left
3480.6611328125,133876,1,1771.0,1755.0,1747.0,1717.0,1771.0,1747.0,1763.0,1746.0,68.50895690917969,16.569019317626953,-71.90118408203125,Left
3482.872802734375,133877,1,1743.0,1757.0,1758.0,1832.0,1837.0,1753.0,1764.0,1753.0,68.50895690917969,16.569019317626953,-71.90118408203125,Left
3484.872802734375,133877,1,1727.0,1755.0,1753.0,1816.0,1752.0,1753.0,1762.0,1755.0,68.50895690917969,16.569019317626953,-71.90118408203125,Left
3486.872802734375,133877,1,1717.0,1757.0,1753.0,1851.0,1685.0,1755.0,1765.0,1757.0,68.50895690917969,16.569019317626953,-71.90118408203125,Left
3488.872802734375,133877,1,1724.0,1757.0,1755.0,1799.0,1805.0,1749.0,1759.0,1751.0,68.50895690917969,16.569019317626953,-71.90118408203125,Left
3490.872802734375,133877,1,1748.0,1757.0,1769.0,1707.0,1771.0,1753.0,1763.0,1740.0,68.50895690917969,16.569019317626953,-71.90118408203125,Left
3496.757080078125,133878,1,1775.0,1757.0,1768.0,1685.0,1739.0,1753.0,1757.0,1751.0,68.50895690917969,16.569019317626953,-71.90118408203125,Left
3498.757080078125,133878,1,1789.0,1755.0,1751.0,1753.0,1743.0,1753.0,1764.0,1746.0,68.50895690917969,16.569019317626953,-71.90118408203125,Left
3500.757080078125,133878,1,1799.0,1757.0,1775.0,1671.0,1738.0,1753.0,1764.0,1757.0,68.50895690917969,16.569019317626953,-71.90118408203125,Left
3502.757080078125,133878,1,1789.0,1754.0,1742.0,1683.0,1716.0,1753.0,1761.0,1739.0,68.50895690917969,16.569019317626953,-71.90118408203125,Left
3504.757080078125,133878,1,1773.0,1756.0,1752.0,1784.0,1847.0,1753.0,1758.0,1754.0,68.50895690917969,16.569019317626953,-71.90118408203125,Left
3502.83203125,133879,1,1757.0,1756.0,1749.0,1819.0,1773.0,1751.0,1763.0,1747.0,68.50895690917969,16.569019317626953,-71.90118408203125,Left
3504.83203125,133879,1,1733.0,1754.0,1751.0,1750.0,1733.0,1753.0,1757.0,1753.0,68.50895690917969,16.569019317626953,-71.90118408203125,Left
3506.83203125,133879,1,1720.0,1755.0,1755.0,1775.0,1737.0,1755.0,1758.0,1750.0,68.50895690917969,16.569019317626953,-71.90118408203125,Left
3508.83203125,133879,1,1727.0,1757.0,1763.0,1651.0,1738.0,1755.0,1757.0,1751.0,68.50895690917969,16.569019317626953,-71.90118408203125,Left
3510.83203125,133879,1,1746.0,1757.0,1767.0,1711.0,1864.0,1753.0,1759.0,1757.0,68.50895690917969,16.569019317626953,-71.90118408203125,Left
3513.182861328125,133880,1,1773.0,1757.0,1759.0,1622.0,1566.0,1753.0,1765.0,1751.0,68.50895690917969,16.569019317626953,-71.90118408203125,Left
3515.182861328125,133880,1,1789.0,1755.0,1765.0,1663.0,1769.0,1755.0,1759.0,1756.0,68.50895690917969,16.569019317626953,-71.90118408203125,Left
3517.182861328125,133880,1,1791.0,1757.0,1762.0,1690.0,1815.0,1753.0,1761.0,1749.0,68.50895690917969,16.569019317626953,-71.90118408203125,Left
3519.182861328125,133880,1,1791.0,1757.0,1750.0,1683.0,1690.0,1753.0,1763.0,1751.0,68.50895690917969,16.569019317626953,-71.90118408203125,Left
3521.182861328125,133880,1,1771.0,1757.0,1739.0,1655.0,1741.0,1752.0,1763.0,1743.0,68.30426788330078,16.547536849975586,-72.31627655029297,Left
3522.90576171875,133881,1,1742.0,1755.0,1753.0,1721.0,1733.0,1751.0,1762.0,1743.0,68.30426788330078,16.547536849975586,-72.31627655029297,Left
3524.90576171875,133881,1,1727.0,1753.0,1735.0,1707.0,1785.0,1751.0,1762.0,1745.0,68.30426788330078,16.547536849975586,-72.31627655029297,Left
3526.90576171875,133881,1,1719.0,1755.0,1770.0,1815.0,1781.0,1751.0,1759.0,1755.0,68.30426788330078,16.547536849975586,-72.31627655029297,Left
3528.90576171875,133881,1,1721.0,1755.0,1763.0,1853.0,1799.0,1753.0,1765.0,1753.0,68.30426788330078,16.547536849975586,-72.31627655029297,Left
3530.90576171875,133881,1,1745.0,1757.0,1747.0,1883.0,1791.0,1751.0,1763.0,1727.0,68.30426788330078,16.547536849975586,-72.31627655029297,Left
3532.69091796875,133882,1,1767.0,1755.0,1768.0,1835.0,1660.0,1750.0,1758.0,1739.0,68.30426788330078,16.547536849975586,-72.31627655029297,Left
3534.69091796875,133882,1,1787.0,1754.0,1764.0,1747.0,1701.0,1755.0,1763.0,1753.0,68.30426788330078,16.547536849975586,-72.31627655029297,Left
3536.69091796875,133882,1,1797.0,1755.0,1754.0,1783.0,1681.0,1751.0,1759.0,1757.0,68.30426788330078,16.547536849975586,-72.31627655029297,Left
3538.69091796875,133882,1,1789.0,1755.0,1753.0,1755.0,1742.0,1755.0,1762.0,1762.0,68.30426788330078,16.547536849975586,-72.31627655029297,Left
3540.69091796875,133882,1,1771.0,1755.0,1753.0,1835.0,1737.0,1753.0,1763.0,1747.0,68.30426788330078,16.547536849975586,-72.31627655029297,Left
3543.471923828125,133883,1,1750.0,1755.0,1755.0,1807.0,1829.0,1752.0,1759.0,1749.0,68.30426788330078,16.547536849975586,-72.31627655029297,Left
3545.471923828125,133883,1,1733.0,1755.0,1747.0,1903.0,1727.0,1752.0,1759.0,1751.0,68.30426788330078,16.547536849975586,-72.31627655029297,Left
3547.471923828125,133883,1,1717.0,1755.0,1755.0,1885.0,1644.0,1753.0,1763.0,1745.0,68.30426788330078,16.547536849975586,-72.31627655029297,Left
3549.471923828125,133883,1,1721.0,1757.0,1759.0,1849.0,1879.0,1752.0,1763.0,1747.0,68.30426788330078,16.547536849975586,-72.31627655029297,Left
3551.471923828125,133883,1,1746.0,1755.0,1771.0,1763.0,1811.0,1753.0,1763.0,1745.0,68.30426788330078,16.547536849975586,-72.31627655029297,Left
3552.794921875,133884,1,1772.0,1751.0,1767.0,1817.0,1781.0,1753.0,1763.0,1743.0,68.30426788330078,16.547536849975586,-72.31627655029297,Left
3554.794921875,133884,1,1787.0,1757.0,1749.0,1787.0,1752.0,1753.0,1762.0,1742.0,68.30426788330078,16.547536849975586,-72.31627655029297,Left
3556.794921875,133884,1,1791.0,1756.0,1755.0,1721.0,1695.0,1752.0,1763.0,1755.0,68.30426788330078,16.547536849975586,-72.31627655029297,Left
3558.794921875,133884,1,1789.0,1757.0,1758.0,1700.0,1753.0,1754.0,1763.0,1757.0,68.30426788330078,16.547536849975586,-72.31627655029297,Left
3560.794921875,133884,1,1771.0,1753.0,1751.0,1725.0,1747.0,1753.0,1764.0,1747.0,68.30426788330078,16.547536849975586,-72.31627655029297,Left
3562.623046875,133885,1,1751.0,1757.0,1747.0,1787.0,1738.0,1751.0,1757.0,1758.0,68.30426788330078,16.547536849975586,-72.31627655029297,Left
3564.623046875,133885,1,1735.0,1752.0,1748.0,1791.0,1763.0,1752.0,1764.0,1749.0,68.30426788330078,16.547536849975586,-72.31627655029297,Left
3566.623046875,133885,1,1718.0,1752.0,1756.0,1862.0,1723.0,1750.0,1764.0,1747.0,68.30426788330078,16.547536849975586,-72.31627655029297,Left
3568.623046875,133885,1,1725.0,1755.0,1767.0,1811.0,1711.0,1755.0,1757.0,1747.0,68.30426788330078,16.547536849975586,-72.31627655029297,Left
3570.623046875,133885,1,1746.0,1754.0,1767.0,1783.0,1781.0,1755.0,1759.0,1757.0,68.30426788330078,16.547536849975586,-72.31627655029297,Left
3572.531982421875,133886,1,1767.0,1753.0,1757.0,1687.0,1727.0,1753.0,1764.0,1742.0,68.30426788330078,16.547536849975586,-72.31627655029297,Left
3574.531982421875,133886,1,1788.0,1753.0,1779.0,1691.0,1802.0,1753.0,1759.0,1755.0,68.30426788330078,16.547536849975586,-72.31627655029297,Left
3576.531982421875,133886,1,1799.0,1756.0,1767.0,1716.0,1752.0,1753.0,1763.0,1748.0,68.30426788330078,16.547536849975586,-72.31627655029297,Left
3578.531982421875,133886,1,1789.0,1753.0,1757.0,1655.0,1764.0,1752.0,1763.0,1746.0,68.30426788330078,16.547536849975586,-72.31627655029297,Left
3580.531982421875,133886,1,1779.0,1753.0,1739.0,1615.0,1673.0,1753.0,1762.0,1743.0,68.30426788330078,16.547536849975586,-72.31627655029297,Left
3582.94287109375,133887,1,1743.0,1755.0,1749.0,1661.0,1787.0,1753.0,1758.0,1769.0,68.30426788330078,16.547536849975586,-72.31627655029297,Left
3584.94287109375,133887,1,1735.0,1757.0,1753.0,1673.0,1811.0,1753.0,1757.0,1755.0,68.19387817382812,16.694311141967773,-72.08007049560547,Left
3586.94287109375,133887,1,1719.0,1755.0,1737.0,1677.0,1775.0,1752.0,1758.0,1752.0,68.19387817382812,16.694311141967773,-72.08007049560547,Left
3588.94287109375,133887,1,1725.0,1755.0,1767.0,1706.0,1736.0,1751.0,1757.0,1748.0,68.19387817382812,16.694311141967773,-72.08007049560547,Left
3590.94287109375,133887,1,1743.0,1756.0,1767.0,1770.0,1753.0,1753.0,1763.0,1742.0,68.19387817382812,16.694311141967773,-72.08007049560547,Left
3592.666748046875,133888,1,1769.0,1755.0,1775.0,1771.0,1820.0,1753.0,1763.0,1756.0,68.19387817382812,16.694311141967773,-72.08007049560547,Left
3594.666748046875,133888,1,1785.0,1753.0,1779.0,1706.0,1784.0,1752.0,1763.0,1747.0,68.19387817382812,16.694311141967773,-72.08007049560547,Left
3596.666748046875,133888,1,1799.0,1756.0,1749.0,1589.0,1677.0,1752.0,1763.0,1740.0,68.19387817382812,16.694311141967773,-72.08007049560547,Left
3598.666748046875,133888,1,1789.0,1757.0,1751.0,1644.0,1829.0,1750.0,1763.0,1753.0,68.19387817382812,16.694311141967773,-72.08007049560547,Left
3600.666748046875,133888,1,1783.0,1757.0,1754.0,1737.0,1781.0,1752.0,1759.0,1747.0,68.19387817382812,16.694311141967773,-72.08007049560547,Left
3602.61572265625,133889,1,1749.0,1759.0,1743.0,1757.0,1747.0,1752.0,1763.0,1749.0,68.19387817382812,16.694311141967773,-72.08007049560547,Left
3604.61572265625,133889,1,1736.0,1753.0,1741.0,1798.0,1661.0,1750.0,1763.0,1753.0,68.19387817382812,16.694311141967773,-72.08007049560547,Left
3606.61572265625,133889,1,1720.0,1753.0,1770.0,1823.0,1784.0,1753.0,1763.0,1754.0,68.19387817382812,16.694311141967773,-72.08007049560547,Left
3608.61572265625,133889,1,1723.0,1754.0,1751.0,1797.0,1649.0,1751.0,1756.0,1743.0,68.19387817382812,16.694311141967773,-72.08007049560547,Left
3610.61572265625,133889,1,1741.0,1755.0,1765.0,1779.0,1686.0,1755.0,1764.0,1753.0,68.19387817382812,16.694311141967773,-72.08007049560547,Left
3613.0498046875,133890,1,1769.0,1753.0,1767.0,1749.0,1738.0,1751.0,1763.0,1755.0,68.19387817382812,16.694311141967773,-72.08007049560547,Left
3615.0498046875,133890,1,1787.0,1757.0,1766.0,1774.0,1715.0,1755.0,1759.0,1750.0,68.19387817382812,16.694311141967773,-72.08007049560547,Left
3617.0498046875,133890,1,1799.0,1755.0,1763.0,1814.0,1797.0,1754.0,1762.0,1751.0,68.19387817382812,16.694311141967773,-72.08007049560547,Left
3619.0498046875,133890,1,1789.0,1756.0,1750.0,1920.0,1763.0,1753.0,1763.0,1749.0,68.19387817382812,16.694311141967773,-72.08007049560547,Left
3621.0498046875,133890,1,1780.0,1755.0,1755.0,1893.0,1747.0,1755.0,1764.0,1752.0,68.19387817382812,16.694311141967773,-72.08007049560547,Left
3622.720947265625,133891,1,1742.0,1751.0,1748.0,1900.0,1811.0,1753.0,1759.0,1746.0,68.19387817382812,16.694311141967773,-72.08007049560547,Left
3624.720947265625,133891,1,1736.0,1753.0,1747.0,1837.0,1709.0,1753.0,1759.0,1747.0,68.19387817382812,16.694311141967773,-72.08007049560547,Left
3626.720947265625,133891,1,1719.0,1755.0,1757.0,1809.0,1705.0,1751.0,1763.0,1754.0,68.19387817382812,16.694311141967773,-72.08007049560547,Left
3628.720947265625,133891,1,1720.0,1756.0,1755.0,1785.0,1827.0,1752.0,1763.0,1753.0,68.19387817382812,16.694311141967773,-72.08007049560547,Left
3630.720947265625,133891,1,1742.0,1757.0,1757.0,1785.0,1685.0,1753.0,1757.0,1743.0,68.19387817382812,16.694311141967773,-72.08007049560547,Left
3632.534912109375,133892,1,1757.0,1761.0,1755.0,1801.0,1734.0,1753.0,1763.0,1755.0,68.19387817382812,16.694311141967773,-72.08007049560547,Left
