Timestamp_ms,Packet_Number,Trial_ID,Ch1,Ch2,Ch3,Ch4,Ch5,Ch6,Ch7,Ch8,Ch9,Ch10,Ch11,Label
1980.9522705078125,293930,1,1775.0,1757.0,1767.0,1765.0,1751.0,1739.0,1761.0,1751.0,94.11408233642578,-14.081208229064941,-40.77359390258789,Left
1982.9522705078125,293930,1,1759.0,1765.0,1751.0,1763.0,1755.0,1751.0,1755.0,1754.0,94.11408233642578,-14.081208229064941,-40.77359390258789,Left
1984.9522705078125,293930,1,1735.0,1769.0,1765.0,1765.0,1751.0,1751.0,1764.0,1757.0,94.11408233642578,-14.081208229064941,-40.77359390258789,Left
1986.9522705078125,293930,1,1715.0,1764.0,1742.0,1749.0,1753.0,1743.0,1763.0,1743.0,94.11408233642578,-14.081208229064941,-40.77359390258789,Left
1988.9522705078125,293930,1,1727.0,1765.0,1769.0,1765.0,1755.0,1739.0,1748.0,1771.0,94.11408233642578,-14.081208229064941,-40.77359390258789,Left
1981.4130859375,293931,1,1755.0,1759.0,1705.0,1769.0,1753.0,1747.0,1751.0,1798.0,94.11408233642578,-14.081208229064941,-40.77359390258789,Left
1983.4130859375,293931,1,1785.0,1757.0,1769.0,1755.0,1752.0,1747.0,1747.0,1725.0,94.11408233642578,-14.081208229064941,-40.77359390258789,Left
1985.4130859375,293931,1,1791.0,1759.0,1759.0,1741.0,1755.0,1741.0,1763.0,1720.0,94.11408233642578,-14.081208229064941,-40.77359390258789,Left
1987.4130859375,293931,1,1798.0,1762.0,1759.0,1756.0,1743.0,1753.0,1751.0,1737.0,94.11408233642578,-14.081208229064941,-40.77359390258789,Left
1989.4130859375,293931,1,1783.0,1757.0,1743.0,1753.0,1751.0,1752.0,1763.0,1715.0,94.11408233642578,-14.081208229064941,-40.77359390258789,Left
1994.16015625,293932,1,1773.0,1757.0,1748.0,1775.0,1749.0,1751.0,1751.0,1736.0,94.11408233642578,-14.081208229064941,-40.77359390258789,Left
1996.16015625,293932,1,1763.0,1753.0,1753.0,1753.0,1754.0,1754.0,1759.0,1741.0,94.11408233642578,-14.081208229064941,-40.77359390258789,Left
1998.16015625,293932,1,1739.0,1759.0,1753.0,1757.0,1752.0,1758.0,1752.0,1737.0,94.11408233642578,-14.081208229064941,-40.77359390258789,Left
2000.16015625,293932,1,1711.0,1764.0,1749.0,1761.0,1756.0,1747.0,1763.0,1749.0,94.11408233642578,-14.081208229064941,-40.77359390258789,Left
2002.16015625,293932,1,1723.0,1755.0,1735.0,1738.0,1753.0,1751.0,1751.0,1757.0,94.11408233642578,-14.081208229064941,-40.77359390258789,Left
2007.621337890625,293933,1,1756.0,1724.0,1787.0,1765.0,1753.0,1740.0,1741.0,1799.0,94.11408233642578,-14.081208229064941,-40.77359390258789,Left
2009.621337890625,293933,1,1781.0,1765.0,1753.0,1765.0,1750.0,1751.0,1763.0,1757.0,94.11408233642578,-14.081208229064941,-40.77359390258789,Left
2011.621337890625,293933,1,1781.0,1761.0,1756.0,1736.0,1753.0,1751.0,1765.0,1755.0,94.11408233642578,-14.081208229064941,-40.77359390258789,Left
2013.621337890625,293933,1,1783.0,1769.0,1763.0,1763.0,1751.0,1749.0,1757.0,1741.0,94.11408233642578,-14.081208229064941,-40.77359390258789,Left
2015.621337890625,293933,1,1784.0,1757.0,1779.0,1763.0,1753.0,1753.0,1751.0,1721.0,94.11408233642578,-14.081208229064941,-40.77359390258789,Left
2014.4891357421875,293934,1,1772.0,1767.0,1749.0,1762.0,1753.0,1747.0,1765.0,1717.0,94.11408233642578,-14.081208229064941,-40.77359390258789,Left
2016.4891357421875,293934,1,1749.0,1752.0,1755.0,1753.0,1752.0,1750.0,1754.0,1727.0,94.51902770996094,-13.914981842041016,-41.35803985595703,Left
2018.4891357421875,293934,1,1734.0,1759.0,1751.0,1765.0,1753.0,1757.0,1763.0,1761.0,94.51902770996094,-13.914981842041016,-41.35803985595703,Left
2020.4891357421875,293934,1,1723.0,1758.0,1757.0,1763.0,1755.0,1755.0,1764.0,1768.0,94.51902770996094,-13.914981842041016,-41.35803985595703,Left
2022.4891357421875,293934,1,1727.0,1747.0,1753.0,1749.0,1741.0,1753.0,1763.0,1775.0,94.51902770996094,-13.914981842041016,-41.35803985595703,Left
2025.337158203125,293935,1,1763.0,1751.0,1747.0,1750.0,1739.0,1753.0,1763.0,1740.0,94.51902770996094,-13.914981842041016,-41.35803985595703,Left
2027.337158203125,293935,1,1787.0,1756.0,1753.0,1755.0,1741.0,1740.0,1763.0,1739.0,94.51902770996094,-13.914981842041016,-41.35803985595703,Left
2029.337158203125,293935,1,1772.0,1753.0,1765.0,1766.0,1740.0,1750.0,1747.0,1719.0,94.51902770996094,-13.914981842041016,-41.35803985595703,Left
2031.337158203125,293935,1,1791.0,1765.0,1759.0,1755.0,1755.0,1751.0,1762.0,1725.0,94.51902770996094,-13.914981842041016,-41.35803985595703,Left
2033.337158203125,293935,1,1787.0,1753.0,1767.0,1755.0,1752.0,1756.0,1752.0,1749.0,94.51902770996094,-13.914981842041016,-41.35803985595703,Left
2050.049072265625,293936,1,1767.0,1758.0,1772.0,1750.0,1751.0,1753.0,1763.0,1757.0,94.51902770996094,-13.914981842041016,-41.35803985595703,Left
2052.049072265625,293936,1,1759.0,1749.0,1758.0,1755.0,1750.0,1755.0,1754.0,1741.0,94.51902770996094,-13.914981842041016,-41.35803985595703,Left
2054.049072265625,293936,1,1739.0,1759.0,1742.0,1759.0,1757.0,1756.0,1767.0,1749.0,94.51902770996094,-13.914981842041016,-41.35803985595703,Left
2056.049072265625,293936,1,1721.0,1759.0,1751.0,1749.0,1753.0,1757.0,1765.0,1759.0,94.51902770996094,-13.914981842041016,-41.35803985595703,Left
2058.049072265625,293936,1,1721.0,1753.0,1750.0,1749.0,1741.0,1749.0,1756.0,1763.0,94.51902770996094,-13.914981842041016,-41.35803985595703,Left
2050.9921875,293937,1,1757.0,1751.0,1755.0,1763.0,1755.0,1747.0,1763.0,1758.0,94.51902770996094,-13.914981842041016,-41.35803985595703,Left
2052.9921875,293937,1,1775.0,1757.0,1767.0,1749.0,1753.0,1739.0,1763.0,1745.0,94.51902770996094,-13.914981842041016,-41.35803985595703,Left
2054.9921875,293937,1,1789.0,1765.0,1758.0,1759.0,1754.0,1751.0,1764.0,1749.0,94.51902770996094,-13.914981842041016,-41.35803985595703,Left
2056.9921875,293937,1,1785.0,1752.0,1751.0,1755.0,1755.0,1753.0,1753.0,1745.0,94.51902770996094,-13.914981842041016,-41.35803985595703,Left
2058.9921875,293937,1,1791.0,1758.0,1757.0,1766.0,1741.0,1753.0,1766.0,1746.0,94.51902770996094,-13.914981842041016,-41.35803985595703,Left
2053.125244140625,293938,1,1775.0,1755.0,1757.0,1762.0,1755.0,1745.0,1757.0,1745.0,94.51902770996094,-13.914981842041016,-41.35803985595703,Left
2055.125244140625,293938,1,1753.0,1769.0,1753.0,1747.0,1752.0,1752.0,1751.0,1747.0,94.51902770996094,-13.914981842041016,-41.35803985595703,Left
2057.125244140625,293938,1,1737.0,1763.0,1739.0,1755.0,1766.0,1751.0,1762.0,1752.0,94.51902770996094,-13.914981842041016,-41.35803985595703,Left
2059.125244140625,293938,1,1723.0,1763.0,1751.0,1753.0,1754.0,1750.0,1763.0,1773.0,94.51902770996094,-13.914981842041016,-41.35803985595703,Left
2061.125244140625,293938,1,1716.0,1757.0,1755.0,1769.0,1743.0,1743.0,1763.0,1781.0,94.51902770996094,-13.914981842041016,-41.35803985595703,Left
2062.42138671875,293939,1,1753.0,1757.0,1783.0,1753.0,1752.0,1743.0,1753.0,1769.0,94.51902770996094,-13.914981842041016,-41.35803985595703,Left
2064.42138671875,293939,1,1783.0,1757.0,1771.0,1755.0,1755.0,1743.0,1764.0,1736.0,94.51902770996094,-13.914981842041016,-41.35803985595703,Left
2066.42138671875,293939,1,1787.0,1745.0,1749.0,1762.0,1751.0,1739.0,1763.0,1727.0,94.51902770996094,-13.914981842041016,-41.35803985595703,Left
2068.42138671875,293939,1,1791.0,1756.0,1752.0,1764.0,1743.0,1753.0,1765.0,1726.0,94.51902770996094,-13.914981842041016,-41.35803985595703,Left
2070.42138671875,293939,1,1781.0,1752.0,1753.0,1763.0,1746.0,1753.0,1763.0,1749.0,94.51902770996094,-13.914981842041016,-41.35803985595703,Left
2086.858154296875,293940,1,1779.0,1715.0,1735.0,1748.0,1747.0,1752.0,1743.0,1724.0,94.51902770996094,-13.914981842041016,-41.35803985595703,Left
2088.858154296875,293940,1,1763.0,1755.0,1719.0,1741.0,1753.0,1756.0,1759.0,1719.0,94.51902770996094,-13.914981842041016,-41.35803985595703,Left
2090.858154296875,293940,1,1739.0,1759.0,1741.0,1749.0,1755.0,1753.0,1759.0,1733.0,94.51902770996094,-13.914981842041016,-41.35803985595703,Left
2092.858154296875,293940,1,1721.0,1757.0,1749.0,1763.0,1747.0,1752.0,1759.0,1773.0,94.51902770996094,-13.914981842041016,-41.35803985595703,Left
2094.858154296875,293940,1,1717.0,1764.0,1770.0,1765.0,1756.0,1752.0,1764.0,1784.0,95.32713317871094,-13.522204399108887,-41.71549987792969,Left
2087.531982421875,293941,1,1757.0,1757.0,1762.0,1771.0,1753.0,1751.0,1762.0,1764.0,95.32713317871094,-13.522204399108887,-41.71549987792969,Left
2089.531982421875,293941,1,1776.0,1755.0,1766.0,1757.0,1755.0,1752.0,1763.0,1757.0,95.32713317871094,-13.522204399108887,-41.71549987792969,Left
2091.531982421875,293941,1,1787.0,1764.0,1773.0,1758.0,1753.0,1749.0,1763.0,1752.0,95.32713317871094,-13.522204399108887,-41.71549987792969,Left
2093.531982421875,293941,1,1791.0,1763.0,1768.0,1772.0,1741.0,1751.0,1758.0,1726.0,95.32713317871094,-13.522204399108887,-41.71549987792969,Left
2095.531982421875,293941,1,1785.0,1757.0,1763.0,1752.0,1751.0,1755.0,1765.0,1727.0,95.32713317871094,-13.522204399108887,-41.71549987792969,Left
2097.316162109375,293942,1,1772.0,1758.0,1766.0,1773.0,1754.0,1751.0,1763.0,1765.0,95.32713317871094,-13.522204399108887,-41.71549987792969,Left
2099.316162109375,293942,1,1763.0,1764.0,1748.0,1767.0,1742.0,1755.0,1763.0,1743.0,95.32713317871094,-13.522204399108887,-41.71549987792969,Left
2101.316162109375,293942,1,1724.0,1765.0,1743.0,1749.0,1717.0,1749.0,1761.0,1741.0,95.32713317871094,-13.522204399108887,-41.71549987792969,Left
2103.316162109375,293942,1,1707.0,1747.0,1721.0,1749.0,1751.0,1747.0,1767.0,1749.0,95.32713317871094,-13.522204399108887,-41.71549987792969,Left
2105.316162109375,293942,1,1715.0,1765.0,1785.0,1767.0,1751.0,1755.0,1765.0,1787.0,95.32713317871094,-13.522204399108887,-41.71549987792969,Left
2098.235107421875,293943,1,1753.0,1761.0,1759.0,1771.0,1753.0,1743.0,1763.0,1775.0,95.32713317871094,-13.522204399108887,-41.71549987792969,Left
2100.235107421875,293943,1,1774.0,1755.0,1739.0,1751.0,1741.0,1753.0,1763.0,1734.0,95.32713317871094,-13.522204399108887,-41.71549987792969,Left
2102.235107421875,293943,1,1787.0,1758.0,1771.0,1750.0,1742.0,1758.0,1763.0,1723.0,95.32713317871094,-13.522204399108887,-41.71549987792969,Left
2104.235107421875,293943,1,1798.0,1755.0,1773.0,1763.0,1755.0,1757.0,1765.0,1745.0,95.32713317871094,-13.522204399108887,-41.71549987792969,Left
2106.235107421875,293943,1,1786.0,1764.0,1755.0,1764.0,1754.0,1751.0,1765.0,1721.0,95.32713317871094,-13.522204399108887,-41.71549987792969,Left
2117.55810546875,293944,1,1771.0,1723.0,1749.0,1753.0,1740.0,1755.0,1765.0,1749.0,95.32713317871094,-13.522204399108887,-41.71549987792969,Left
2119.55810546875,293944,1,1752.0,1751.0,1751.0,1757.0,1752.0,1755.0,1767.0,1751.0,95.32713317871094,-13.522204399108887,-41.71549987792969,Left
2121.55810546875,293944,1,1735.0,1762.0,1765.0,1763.0,1756.0,1753.0,1766.0,1754.0,95.32713317871094,-13.522204399108887,-41.71549987792969,Left
2123.55810546875,293944,1,1721.0,1749.0,1723.0,1749.0,1747.0,1755.0,1765.0,1749.0,95.32713317871094,-13.522204399108887,-41.71549987792969,Left
2125.55810546875,293944,1,1717.0,1757.0,1740.0,1765.0,1743.0,1753.0,1764.0,1757.0,95.32713317871094,-13.522204399108887,-41.71549987792969,Left
2124.335205078125,293945,1,1749.0,1758.0,1770.0,1724.0,1741.0,1754.0,1767.0,1775.0,95.32713317871094,-13.522204399108887,-41.71549987792969,Left
2126.335205078125,293945,1,1783.0,1755.0,1772.0,1758.0,1745.0,1741.0,1763.0,1735.0,95.32713317871094,-13.522204399108887,-41.71549987792969,Left
2128.335205078125,293945,1,1781.0,1764.0,1755.0,1771.0,1753.0,1753.0,1759.0,1748.0,95.32713317871094,-13.522204399108887,-41.71549987792969,Left
2130.335205078125,293945,1,1799.0,1754.0,1755.0,1767.0,1751.0,1752.0,1765.0,1735.0,95.32713317871094,-13.522204399108887,-41.71549987792969,Left
2132.335205078125,293945,1,1785.0,1757.0,1759.0,1753.0,1755.0,1746.0,1765.0,1736.0,95.32713317871094,-13.522204399108887,-41.71549987792969,Left
2127.837158203125,293946,1,1775.0,1751.0,1769.0,1755.0,1752.0,1755.0,1751.0,1739.0,95.32713317871094,-13.522204399108887,-41.71549987792969,Left
2129.837158203125,293946,1,1762.0,1762.0,1735.0,1755.0,1767.0,1747.0,1765.0,1733.0,95.32713317871094,-13.522204399108887,-41.71549987792969,Left
2131.837158203125,293946,1,1737.0,1762.0,1755.0,1759.0,1752.0,1753.0,1763.0,1749.0,95.32713317871094,-13.522204399108887,-41.71549987792969,Left
2133.837158203125,293946,1,1721.0,1757.0,1753.0,1753.0,1755.0,1753.0,1753.0,1771.0,95.32713317871094,-13.522204399108887,-41.71549987792969,Left
2135.837158203125,293946,1,1711.0,1749.0,1725.0,1748.0,1746.0,1754.0,1763.0,1753.0,95.32713317871094,-13.522204399108887,-41.71549987792969,Left
2146.17236328125,293947,1,1759.0,1741.0,1757.0,1755.0,1754.0,1743.0,1735.0,1755.0,95.32713317871094,-13.522204399108887,-41.71549987792969,Left
2148.17236328125,293947,1,1780.0,1755.0,1774.0,1757.0,1751.0,1755.0,1761.0,1763.0,95.63728332519531,-13.329771041870117,-41.802268981933594,Left
2150.17236328125,293947,1,1787.0,1755.0,1780.0,1780.0,1773.0,1748.0,1759.0,1752.0,95.63728332519531,-13.329771041870117,-41.802268981933594,Left
2152.17236328125,293947,1,1787.0,1763.0,1762.0,1757.0,1747.0,1742.0,1758.0,1755.0,95.63728332519531,-13.329771041870117,-41.802268981933594,Left
2154.17236328125,293947,1,1787.0,1753.0,1706.0,1727.0,1756.0,1741.0,1753.0,1722.0,95.63728332519531,-13.329771041870117,-41.802268981933594,Left
2146.824462890625,293948,1,1775.0,1759.0,1759.0,1765.0,1754.0,1753.0,1763.0,1717.0,95.63728332519531,-13.329771041870117,-41.802268981933594,Left
2148.824462890625,293948,1,1763.0,1759.0,1773.0,1768.0,1755.0,1752.0,1763.0,1757.0,95.63728332519531,-13.329771041870117,-41.802268981933594,Left
2150.824462890625,293948,1,1737.0,1753.0,1775.0,1751.0,1755.0,1755.0,1754.0,1741.0,95.63728332519531,-13.329771041870117,-41.802268981933594,Left
2152.824462890625,293948,1,1723.0,1757.0,1748.0,1752.0,1755.0,1743.0,1764.0,1752.0,95.63728332519531,-13.329771041870117,-41.802268981933594,Left
2154.824462890625,293948,1,1723.0,1750.0,1747.0,1768.0,1741.0,1747.0,1761.0,1767.0,95.63728332519531,-13.329771041870117,-41.802268981933594,Left
2163.02001953125,293949,1,1755.0,1755.0,1751.0,1755.0,1749.0,1751.0,1761.0,1754.0,95.63728332519531,-13.329771041870117,-41.802268981933594,Left
2165.02001953125,293949,1,1781.0,1763.0,1753.0,1756.0,1753.0,1753.0,1763.0,1737.0,95.63728332519531,-13.329771041870117,-41.802268981933594,Left
2167.02001953125,293949,1,1797.0,1749.0,1757.0,1757.0,1755.0,1753.0,1762.0,1741.0,95.63728332519531,-13.329771041870117,-41.802268981933594,Left
2169.02001953125,293949,1,1785.0,1756.0,1755.0,1754.0,1751.0,1751.0,1751.0,1711.0,95.63728332519531,-13.329771041870117,-41.802268981933594,Left
2171.02001953125,293949,1,1783.0,1763.0,1759.0,1768.0,1753.0,1752.0,1763.0,1734.0,95.63728332519531,-13.329771041870117,-41.802268981933594,Left
2175.568359375,293950,1,1779.0,1759.0,1768.0,1768.0,1754.0,1755.0,1765.0,1755.0,95.63728332519531,-13.329771041870117,-41.802268981933594,Left
2177.568359375,293950,1,1765.0,1749.0,1750.0,1755.0,1753.0,1752.0,1753.0,1743.0,95.63728332519531,-13.329771041870117,-41.802268981933594,Left
2179.568359375,293950,1,1736.0,1763.0,1757.0,1746.0,1751.0,1752.0,1753.0,1763.0,95.63728332519531,-13.329771041870117,-41.802268981933594,Left
2181.568359375,293950,1,1724.0,1749.0,1759.0,1739.0,1753.0,1753.0,1765.0,1763.0,95.63728332519531,-13.329771041870117,-41.802268981933594,Left
2183.568359375,293950,1,1721.0,1763.0,1759.0,1757.0,1755.0,1753.0,1767.0,1775.0,95.63728332519531,-13.329771041870117,-41.802268981933594,Left
2182.812255859375,293951,1,1749.0,1753.0,1741.0,1758.0,1748.0,1747.0,1750.0,1754.0,95.63728332519531,-13.329771041870117,-41.802268981933594,Left
2184.812255859375,293951,1,1783.0,1758.0,1763.0,1768.0,1749.0,1758.0,1749.0,1739.0,95.63728332519531,-13.329771041870117,-41.802268981933594,Left
2186.812255859375,293951,1,1785.0,1763.0,1753.0,1764.0,1797.0,1756.0,1763.0,1747.0,95.63728332519531,-13.329771041870117,-41.802268981933594,Left
2188.812255859375,293951,1,1783.0,1747.0,1759.0,1754.0,1755.0,1755.0,1752.0,1739.0,95.63728332519531,-13.329771041870117,-41.802268981933594,Left
2190.812255859375,293951,1,1791.0,1755.0,1763.0,1755.0,1749.0,1743.0,1752.0,1722.0,95.63728332519531,-13.329771041870117,-41.802268981933594,Left
2190.538330078125,293952,1,1775.0,1752.0,1753.0,1754.0,1749.0,1752.0,1768.0,1724.0,95.63728332519531,-13.329771041870117,-41.802268981933594,Left
2192.538330078125,293952,1,1767.0,1764.0,1751.0,1762.0,1751.0,1751.0,1753.0,1747.0,95.63728332519531,-13.329771041870117,-41.802268981933594,Left
2194.538330078125,293952,1,1740.0,1749.0,1771.0,1759.0,1753.0,1753.0,1766.0,1763.0,95.63728332519531,-13.329771041870117,-41.802268981933594,Left
2196.538330078125,293952,1,1710.0,1762.0,1725.0,1756.0,1755.0,1747.0,1763.0,1779.0,95.63728332519531,-13.329771041870117,-41.802268981933594,Left
2198.538330078125,293952,1,1721.0,1759.0,1737.0,1755.0,1754.0,1754.0,1753.0,1767.0,95.63728332519531,-13.329771041870117,-41.802268981933594,Left
2196.9482421875,293953,1,1752.0,1749.0,1759.0,1771.0,1751.0,1738.0,1749.0,1768.0,95.63728332519531,-13.329771041870117,-41.802268981933594,Left
2198.9482421875,293953,1,1774.0,1753.0,1749.0,1756.0,1751.0,1741.0,1764.0,1752.0,95.63728332519531,-13.329771041870117,-41.802268981933594,Left
2200.9482421875,293953,1,1787.0,1763.0,1779.0,1756.0,1739.0,1749.0,1765.0,1761.0,95.63728332519531,-13.329771041870117,-41.802268981933594,Left
2202.9482421875,293953,1,1784.0,1756.0,1773.0,1765.0,1743.0,1752.0,1765.0,1747.0,95.6969985961914,-13.233386993408203,-41.652713775634766,Left
2204.9482421875,293953,1,1791.0,1763.0,1771.0,1763.0,1754.0,1754.0,1763.0,1736.0,95.6969985961914,-13.233386993408203,-41.652713775634766,Left
2216.215087890625,293954,1,1779.0,1749.0,1727.0,1749.0,1739.0,1755.0,1764.0,1740.0,95.6969985961914,-13.233386993408203,-41.652713775634766,Left
2218.215087890625,293954,1,1759.0,1749.0,1727.0,1753.0,1751.0,1749.0,1758.0,1733.0,95.6969985961914,-13.233386993408203,-41.652713775634766,Left
2220.215087890625,293954,1,1737.0,1759.0,1741.0,1765.0,1746.0,1757.0,1767.0,1748.0,95.6969985961914,-13.233386993408203,-41.652713775634766,Left
2222.215087890625,293954,1,1721.0,1756.0,1764.0,1767.0,1755.0,1757.0,1759.0,1755.0,95.6969985961914,-13.233386993408203,-41.652713775634766,Left
2224.215087890625,293954,1,1721.0,1759.0,1749.0,1752.0,1750.0,1753.0,1763.0,1753.0,95.6969985961914,-13.233386993408203,-41.652713775634766,Left
2219.1982421875,293955,1,1745.0,1753.0,1763.0,1759.0,1751.0,1752.0,1763.0,1773.0,95.6969985961914,-13.233386993408203,-41.652713775634766,Left
2221.1982421875,293955,1,1783.0,1754.0,1761.0,1763.0,1752.0,1741.0,1757.0,1753.0,95.6969985961914,-13.233386993408203,-41.652713775634766,Left
2223.1982421875,293955,1,1791.0,1751.0,1751.0,1768.0,1757.0,1753.0,1765.0,1741.0,95.6969985961914,-13.233386993408203,-41.652713775634766,Left
2225.1982421875,293955,1,1791.0,1763.0,1759.0,1756.0,1749.0,1755.0,1763.0,1743.0,95.6969985961914,-13.233386993408203,-41.652713775634766,Left
2227.1982421875,293955,1,1787.0,1767.0,1783.0,1759.0,1751.0,1751.0,1751.0,1750.0,95.6969985961914,-13.233386993408203,-41.652713775634766,Left
2229.001220703125,293956,1,1779.0,1748.0,1752.0,1757.0,1743.0,1748.0,1763.0,1747.0,95.6969985961914,-13.233386993408203,-41.652713775634766,Left
2231.001220703125,293956,1,1753.0,1761.0,1747.0,1751.0,1757.0,1743.0,1758.0,1725.0,95.6969985961914,-13.233386993408203,-41.652713775634766,Left
2233.001220703125,293956,1,1738.0,1747.0,1745.0,1751.0,1750.0,1751.0,1765.0,1747.0,95.6969985961914,-13.233386993408203,-41.652713775634766,Left
2235.001220703125,293956,1,1720.0,1755.0,1768.0,1758.0,1741.0,1750.0,1766.0,1773.0,95.6969985961914,-13.233386993408203,-41.652713775634766,Left
2237.001220703125,293956,1,1722.0,1756.0,1781.0,1780.0,1753.0,1752.0,1768.0,1800.0,95.6969985961914,-13.233386993408203,-41.652713775634766,Left
2237.403076171875,293957,1,1751.0,1747.0,1771.0,1749.0,1743.0,1753.0,1762.0,1754.0,95.6969985961914,-13.233386993408203,-41.652713775634766,Left
2239.403076171875,293957,1,1783.0,1757.0,1711.0,1754.0,1751.0,1740.0,1763.0,1727.0,95.6969985961914,-13.233386993408203,-41.652713775634766,Left
2241.403076171875,293957,1,1789.0,1761.0,1753.0,1727.0,1753.0,1751.0,1763.0,1737.0,95.6969985961914,-13.233386993408203,-41.652713775634766,Left
2243.403076171875,293957,1,1788.0,1756.0,1767.0,1763.0,1741.0,1749.0,1766.0,1739.0,95.6969985961914,-13.233386993408203,-41.652713775634766,Left
2245.403076171875,293957,1,1783.0,1757.0,1749.0,1763.0,1747.0,1752.0,1758.0,1725.0,95.6969985961914,-13.233386993408203,-41.652713775634766,Left
2250.037353515625,293958,1,1774.0,1752.0,1755.0,1740.0,1741.0,1749.0,1757.0,1725.0,95.6969985961914,-13.233386993408203,-41.652713775634766,Left
2252.037353515625,293958,1,1756.0,1755.0,1747.0,1753.0,1749.0,1753.0,1753.0,1741.0,95.6969985961914,-13.233386993408203,-41.652713775634766,Left
2254.037353515625,293958,1,1733.0,1763.0,1735.0,1768.0,1743.0,1753.0,1767.0,1741.0,95.6969985961914,-13.233386993408203,-41.652713775634766,Left
2256.037353515625,293958,1,1717.0,1756.0,1747.0,1753.0,1755.0,1747.0,1768.0,1763.0,95.6969985961914,-13.233386993408203,-41.652713775634766,Left
2258.037353515625,293958,1,1715.0,1756.0,1747.0,1743.0,1746.0,1753.0,1761.0,1780.0,95.6969985961914,-13.233386993408203,-41.652713775634766,Left
2269.96044921875,293959,1,1755.0,1754.0,1766.0,1756.0,1755.0,1749.0,1765.0,1773.0,95.6969985961914,-13.233386993408203,-41.652713775634766,Left
2271.96044921875,293959,1,1781.0,1735.0,1773.0,1757.0,1754.0,1739.0,1751.0,1740.0,95.6969985961914,-13.233386993408203,-41.652713775634766,Left
2273.96044921875,293959,1,1787.0,1752.0,1783.0,1775.0,1756.0,1751.0,1764.0,1763.0,95.6969985961914,-13.233386993408203,-41.652713775634766,Left
2275.96044921875,293959,1,1788.0,1763.0,1774.0,1754.0,1753.0,1748.0,1749.0,1746.0,95.6969985961914,-13.233386993408203,-41.652713775634766,Left
2277.96044921875,293959,1,1789.0,1755.0,1775.0,1743.0,1755.0,1753.0,1763.0,1753.0,95.6969985961914,-13.233386993408203,-41.652713775634766,Left
2270.684326171875,293960,1,1779.0,1771.0,1752.0,1755.0,1743.0,1753.0,1763.0,1743.0,95.6969985961914,-13.233386993408203,-41.652713775634766,Left
2272.684326171875,293960,1,1763.0,1761.0,1748.0,1763.0,1755.0,1753.0,1757.0,1725.0,95.58341979980469,-13.261284828186035,-41.51951599121094,Left
2274.684326171875,293960,1,1739.0,1763.0,1715.0,1753.0,1753.0,1755.0,1758.0,1735.0,95.58341979980469,-13.261284828186035,-41.51951599121094,Left
2276.684326171875,293960,1,1727.0,1757.0,1750.0,1765.0,1753.0,1755.0,1761.0,1766.0,95.58341979980469,-13.261284828186035,-41.51951599121094,Left
2278.684326171875,293960,1,1725.0,1765.0,1754.0,1751.0,1754.0,1749.0,1767.0,1771.0,95.58341979980469,-13.261284828186035,-41.51951599121094,Left
2283.6572265625,293961,1,1747.0,1759.0,1756.0,1755.0,1750.0,1753.0,1749.0,1753.0,95.58341979980469,-13.261284828186035,-41.51951599121094,Left
2285.6572265625,293961,1,1780.0,1763.0,1745.0,1756.0,1751.0,1741.0,1751.0,1734.0,95.58341979980469,-13.261284828186035,-41.51951599121094,Left
2287.6572265625,293961,1,1788.0,1755.0,1763.0,1765.0,1755.0,1741.0,1762.0,1726.0,95.58341979980469,-13.261284828186035,-41.51951599121094,Left
2289.6572265625,293961,1,1791.0,1755.0,1779.0,1757.0,1754.0,1754.0,1763.0,1757.0,95.58341979980469,-13.261284828186035,-41.51951599121094,Left
2291.6572265625,293961,1,1789.0,1752.0,1723.0,1751.0,1750.0,1754.0,1763.0,1723.0,95.58341979980469,-13.261284828186035,-41.51951599121094,Left
2288.1220703125,293962,1,1776.0,1757.0,1768.0,1759.0,1747.0,1741.0,1758.0,1747.0,95.58341979980469,-13.261284828186035,-41.51951599121094,Left
2290.1220703125,293962,1,1767.0,1755.0,1747.0,1757.0,1755.0,1755.0,1763.0,1739.0,95.58341979980469,-13.261284828186035,-41.51951599121094,Left
2292.1220703125,293962,1,1739.0,1761.0,1770.0,1772.0,1755.0,1758.0,1765.0,1753.0,95.58341979980469,-13.261284828186035,-41.51951599121094,Left
2294.1220703125,293962,1,1721.0,1753.0,1763.0,1759.0,1751.0,1745.0,1764.0,1757.0,95.58341979980469,-13.261284828186035,-41.51951599121094,Left
2296.1220703125,293962,1,1711.0,1757.0,1747.0,1757.0,1753.0,1753.0,1766.0,1768.0,95.58341979980469,-13.261284828186035,-41.51951599121094,Left
2300.915283203125,293963,1,1750.0,1749.0,1741.0,1743.0,1751.0,1755.0,1764.0,1748.0,95.58341979980469,-13.261284828186035,-41.51951599121094,Left
2302.915283203125,293963,1,1780.0,1757.0,1737.0,1754.0,1751.0,1751.0,1758.0,1740.0,95.58341979980469,-13.261284828186035,-41.51951599121094,Left
2304.915283203125,293963,1,1779.0,1756.0,1751.0,1771.0,1742.0,1749.0,1751.0,1753.0,95.58341979980469,-13.261284828186035,-41.51951599121094,Left
2306.915283203125,293963,1,1785.0,1765.0,1792.0,1759.0,1753.0,1751.0,1759.0,1769.0,95.58341979980469,-13.261284828186035,-41.51951599121094,Left
2308.915283203125,293963,1,1785.0,1757.0,1771.0,1769.0,1741.0,1754.0,1757.0,1733.0,95.58341979980469,-13.261284828186035,-41.51951599121094,Left
2306.373046875,293964,1,1775.0,1753.0,1767.0,1758.0,1751.0,1751.0,1747.0,1742.0,95.58341979980469,-13.261284828186035,-41.51951599121094,Left
2308.373046875,293964,1,1741.0,1757.0,1743.0,1753.0,1742.0,1754.0,1765.0,1735.0,95.58341979980469,-13.261284828186035,-41.51951599121094,Left
2310.373046875,293964,1,1740.0,1754.0,1725.0,1749.0,1742.0,1751.0,1765.0,1736.0,95.58341979980469,-13.261284828186035,-41.51951599121094,Left
2312.373046875,293964,1,1717.0,1746.0,1735.0,1769.0,1751.0,1753.0,1765.0,1756.0,95.58341979980469,-13.261284828186035,-41.51951599121094,Left
2314.373046875,293964,1,1727.0,1752.0,1785.0,1764.0,1753.0,1742.0,1763.0,1780.0,95.58341979980469,-13.261284828186035,-41.51951599121094,Left
2322.644287109375,293965,1,1753.0,1743.0,1737.0,1752.0,1739.0,1752.0,1758.0,1753.0,95.58341979980469,-13.261284828186035,-41.51951599121094,Left
2324.644287109375,293965,1,1781.0,1757.0,1763.0,1755.0,1753.0,1749.0,1763.0,1739.0,95.58341979980469,-13.261284828186035,-41.51951599121094,Left
2326.644287109375,293965,1,1789.0,1753.0,1755.0,1755.0,1754.0,1748.0,1763.0,1747.0,95.58341979980469,-13.261284828186035,-41.51951599121094,Left
2328.644287109375,293965,1,1789.0,1759.0,1755.0,1767.0,1752.0,1740.0,1763.0,1747.0,95.58341979980469,-13.261284828186035,-41.51951599121094,Left
2330.644287109375,293965,1,1785.0,1757.0,1759.0,1759.0,1753.0,1741.0,1752.0,1748.0,95.58341979980469,-13.261284828186035,-41.51951599121094,Left
2331.5791015625,293966,1,1775.0,1753.0,1767.0,1757.0,1754.0,1741.0,1763.0,1746.0,95.58341979980469,-13.261284828186035,-41.51951599121094,Left
2333.5791015625,293966,1,1755.0,1740.0,1756.0,1755.0,1752.0,1751.0,1759.0,1736.0,95.58341979980469,-13.261284828186035,-41.51951599121094,Left
2335.5791015625,293966,1,1739.0,1759.0,1751.0,1756.0,1751.0,1751.0,1765.0,1746.0,95.58341979980469,-13.261284828186035,-41.51951599121094,Left
2337.5791015625,293966,1,1716.0,1763.0,1755.0,1773.0,1756.0,1752.0,1764.0,1763.0,95.58341979980469,-13.261284828186035,-41.51951599121094,Left
2339.5791015625,293966,1,1721.0,1763.0,1745.0,1741.0,1753.0,1741.0,1767.0,1781.0,95.6826400756836,-13.463135719299316,-41.63981246948242,Left
2352.081298828125,293967,1,1753.0,1741.0,1750.0,1755.0,1751.0,1747.0,1759.0,1743.0,95.6826400756836,-13.463135719299316,-41.63981246948242,Left
2354.081298828125,293967,1,1775.0,1761.0,1763.0,1761.0,1751.0,1743.0,1759.0,1738.0,95.6826400756836,-13.463135719299316,-41.63981246948242,Left
2356.081298828125,293967,1,1787.0,1751.0,1757.0,1739.0,1749.0,1751.0,1763.0,1739.0,95.6826400756836,-13.463135719299316,-41.63981246948242,Left
2358.081298828125,293967,1,1787.0,1764.0,1788.0,1745.0,1755.0,1755.0,1751.0,1741.0,95.6826400756836,-13.463135719299316,-41.63981246948242,Left
2360.081298828125,293967,1,1787.0,1763.0,1779.0,1773.0,1742.0,1755.0,1765.0,1735.0,95.6826400756836,-13.463135719299316,-41.63981246948242,Left
2353.3203125,293968,1,1781.0,1766.0,1756.0,1771.0,1751.0,1741.0,1752.0,1747.0,95.6826400756836,-13.463135719299316,-41.63981246948242,Left
2355.3203125,293968,1,1763.0,1757.0,1753.0,1749.0,1751.0,1752.0,1757.0,1719.0,95.6826400756836,-13.463135719299316,-41.63981246948242,Left
2357.3203125,293968,1,1739.0,1756.0,1733.0,1766.0,1745.0,1756.0,1763.0,1755.0,95.6826400756836,-13.463135719299316,-41.63981246948242,Left
2359.3203125,293968,1,1723.0,1763.0,1755.0,1765.0,1743.0,1755.0,1759.0,1769.0,95.6826400756836,-13.463135719299316,-41.63981246948242,Left
2361.3203125,293968,1,1723.0,1759.0,1763.0,1769.0,1753.0,1757.0,1765.0,1775.0,95.6826400756836,-13.463135719299316,-41.63981246948242,Left
2374.036376953125,293969,1,1753.0,1750.0,1749.0,1748.0,1751.0,1752.0,1765.0,1753.0,95.6826400756836,-13.463135719299316,-41.63981246948242,Left
2376.036376953125,293969,1,1779.0,1759.0,1753.0,1751.0,1753.0,1751.0,1763.0,1739.0,95.6826400756836,-13.463135719299316,-41.63981246948242,Left
2378.036376953125,293969,1,1789.0,1747.0,1739.0,1753.0,1749.0,1752.0,1761.0,1716.0,95.6826400756836,-13.463135719299316,-41.63981246948242,Left
2380.036376953125,293969,1,1781.0,1755.0,1764.0,1754.0,1753.0,1736.0,1734.0,1707.0,95.6826400756836,-13.463135719299316,-41.63981246948242,Left
2382.036376953125,293969,1,1784.0,1750.0,1747.0,1753.0,1751.0,1739.0,1765.0,1737.0,95.6826400756836,-13.463135719299316,-41.63981246948242,Left
2390.379150390625,293970,1,1768.0,1757.0,1787.0,1755.0,1751.0,1753.0,1752.0,1769.0,95.6826400756836,-13.463135719299316,-41.63981246948242,Left
2392.379150390625,293970,1,1751.0,1753.0,1767.0,1757.0,1754.0,1751.0,1759.0,1757.0,95.6826400756836,-13.463135719299316,-41.63981246948242,Left
2394.379150390625,293970,1,1726.0,1755.0,1753.0,1765.0,1751.0,1743.0,1763.0,1755.0,95.6826400756836,-13.463135719299316,-41.63981246948242,Left
2396.379150390625,293970,1,1711.0,1768.0,1763.0,1769.0,1742.0,1751.0,1765.0,1755.0,95.6826400756836,-13.463135719299316,-41.63981246948242,Left
2398.379150390625,293970,1,1711.0,1765.0,1747.0,1755.0,1755.0,1752.0,1753.0,1773.0,95.6826400756836,-13.463135719299316,-41.63981246948242,Left
2391.29541015625,293971,1,1752.0,1749.0,1769.0,1752.0,1750.0,1749.0,1752.0,1774.0,95.6826400756836,-13.463135719299316,-41.63981246948242,Left
2393.29541015625,293971,1,1775.0,1747.0,1755.0,1768.0,1753.0,1751.0,1751.0,1753.0,95.6826400756836,-13.463135719299316,-41.63981246948242,Left
2395.29541015625,293971,1,1779.0,1755.0,1763.0,1747.0,1767.0,1750.0,1763.0,1734.0,95.6826400756836,-13.463135719299316,-41.63981246948242,Left
2397.29541015625,293971,1,1787.0,1755.0,1747.0,1753.0,1751.0,1750.0,1763.0,1719.0,95.6826400756836,-13.463135719299316,-41.63981246948242,Left
2399.29541015625,293971,1,1787.0,1747.0,1741.0,1737.0,1733.0,1742.0,1766.0,1726.0,95.6826400756836,-13.463135719299316,-41.63981246948242,Left
2391.8203125,293972,1,1771.0,1763.0,1715.0,1741.0,1741.0,1755.0,1743.0,1726.0,95.6826400756836,-13.463135719299316,-41.63981246948242,Left
2393.8203125,293972,1,1768.0,1746.0,1727.0,1765.0,1747.0,1745.0,1767.0,1735.0,95.6826400756836,-13.463135719299316,-41.63981246948242,Left
2395.8203125,293972,1,1739.0,1763.0,1815.0,1775.0,1746.0,1751.0,1762.0,1791.0,95.6826400756836,-13.463135719299316,-41.63981246948242,Left
2397.8203125,293972,1,1715.0,1747.0,1771.0,1763.0,1752.0,1752.0,1763.0,1763.0,95.6826400756836,-13.463135719299316,-41.63981246948242,Left
2399.8203125,293972,1,1724.0,1763.0,1757.0,1755.0,1753.0,1755.0,1765.0,1753.0,95.6826400756836,-13.463135719299316,-41.63981246948242,Left
2403.147216796875,293973,1,1748.0,1753.0,1745.0,1769.0,1753.0,1753.0,1763.0,1751.0,95.9078598022461,-13.671439170837402,-41.80165100097656,Left
2405.147216796875,293973,1,1769.0,1756.0,1769.0,1766.0,1725.0,1747.0,1753.0,1733.0,95.9078598022461,-13.671439170837402,-41.80165100097656,Left
2407.147216796875,293973,1,1787.0,1757.0,1717.0,1755.0,1752.0,1753.0,1757.0,1755.0,95.9078598022461,-13.671439170837402,-41.80165100097656,Left
2409.147216796875,293973,1,1787.0,1755.0,1723.0,1747.0,1753.0,1755.0,1757.0,1720.0,95.9078598022461,-13.671439170837402,-41.80165100097656,Left
2411.147216796875,293973,1,1787.0,1756.0,1741.0,1749.0,1752.0,1741.0,1763.0,1742.0,95.9078598022461,-13.671439170837402,-41.80165100097656,Left
2407.9150390625,293974,1,1774.0,1756.0,1749.0,1753.0,1754.0,1749.0,1761.0,1723.0,95.9078598022461,-13.671439170837402,-41.80165100097656,Left
2409.9150390625,293974,1,1765.0,1769.0,1757.0,1759.0,1752.0,1741.0,1752.0,1735.0,95.9078598022461,-13.671439170837402,-41.80165100097656,Left
2411.9150390625,293974,1,1716.0,1765.0,1749.0,1751.0,1752.0,1747.0,1752.0,1765.0,95.9078598022461,-13.671439170837402,-41.80165100097656,Left
2413.9150390625,293974,1,1721.0,1755.0,1772.0,1763.0,1751.0,1751.0,1765.0,1785.0,95.9078598022461,-13.671439170837402,-41.80165100097656,Left
2415.9150390625,293974,1,1723.0,1753.0,1769.0,1763.0,1741.0,1755.0,1765.0,1783.0,95.9078598022461,-13.671439170837402,-41.80165100097656,Left
2433.059326171875,293975,1,1752.0,1716.0,1759.0,1751.0,1757.0,1746.0,1758.0,1751.0,95.9078598022461,-13.671439170837402,-41.80165100097656,Left
2435.059326171875,293975,1,1775.0,1764.0,1763.0,1752.0,1743.0,1739.0,1764.0,1751.0,95.9078598022461,-13.671439170837402,-41.80165100097656,Left
2437.059326171875,293975,1,1775.0,1759.0,1752.0,1753.0,1755.0,1751.0,1753.0,1727.0,95.9078598022461,-13.671439170837402,-41.80165100097656,Left
2439.059326171875,293975,1,1791.0,1749.0,1757.0,1755.0,1751.0,1741.0,1757.0,1725.0,95.9078598022461,-13.671439170837402,-41.80165100097656,Left
2441.059326171875,293975,1,1786.0,1756.0,1711.0,1753.0,1756.0,1753.0,1765.0,1719.0,95.9078598022461,-13.671439170837402,-41.80165100097656,Left
2436.75244140625,293976,1,1773.0,1755.0,1763.0,1755.0,1751.0,1753.0,1759.0,1733.0,95.9078598022461,-13.671439170837402,-41.80165100097656,Left
2438.75244140625,293976,1,1735.0,1756.0,1779.0,1751.0,1749.0,1755.0,1765.0,1743.0,95.9078598022461,-13.671439170837402,-41.80165100097656,Left
2440.75244140625,293976,1,1739.0,1767.0,1770.0,1765.0,1751.0,1743.0,1767.0,1765.0,95.9078598022461,-13.671439170837402,-41.80165100097656,Left
2442.75244140625,293976,1,1719.0,1768.0,1753.0,1757.0,1750.0,1750.0,1763.0,1771.0,95.9078598022461,-13.671439170837402,-41.80165100097656,Left
2444.75244140625,293976,1,1723.0,1754.0,1797.0,1759.0,1742.0,1752.0,1763.0,1761.0,95.9078598022461,-13.671439170837402,-41.80165100097656,Left
2452.91650390625,293977,1,1751.0,1727.0,1733.0,1759.0,1741.0,1751.0,1751.0,1751.0,95.9078598022461,-13.671439170837402,-41.80165100097656,Left
2454.91650390625,293977,1,1779.0,1756.0,1739.0,1752.0,1755.0,1745.0,1757.0,1725.0,95.9078598022461,-13.671439170837402,-41.80165100097656,Left
2456.91650390625,293977,1,1784.0,1758.0,1725.0,1754.0,1740.0,1751.0,1751.0,1718.0,95.9078598022461,-13.671439170837402,-41.80165100097656,Left
2458.91650390625,293977,1,1789.0,1753.0,1755.0,1763.0,1741.0,1752.0,1756.0,1727.0,95.9078598022461,-13.671439170837402,-41.80165100097656,Left
2460.91650390625,293977,1,1767.0,1778.0,1779.0,1767.0,1750.0,1750.0,1764.0,1752.0,95.9078598022461,-13.671439170837402,-41.80165100097656,Left
2464.268310546875,293978,1,1774.0,1757.0,1780.0,1769.0,1751.0,1743.0,1765.0,1749.0,95.9078598022461,-13.671439170837402,-41.80165100097656,Left
2466.268310546875,293978,1,1749.0,1727.0,1743.0,1757.0,1748.0,1741.0,1759.0,1737.0,95.9078598022461,-13.671439170837402,-41.80165100097656,Left
2468.268310546875,293978,1,1741.0,1763.0,1708.0,1747.0,1725.0,1753.0,1768.0,1741.0,95.9078598022461,-13.671439170837402,-41.80165100097656,Left
2470.268310546875,293978,1,1703.0,1741.0,1782.0,1781.0,1753.0,1751.0,1767.0,1779.0,95.9078598022461,-13.671439170837402,-41.80165100097656,Left
2472.268310546875,293978,1,1727.0,1755.0,1757.0,1743.0,1749.0,1755.0,1766.0,1783.0,95.9078598022461,-13.671439170837402,-41.80165100097656,Left
2464.97509765625,293979,1,1751.0,1768.0,1767.0,1749.0,1741.0,1747.0,1761.0,1765.0,95.9078598022461,-13.671439170837402,-41.80165100097656,Left
2466.97509765625,293979,1,1767.0,1751.0,1741.0,1759.0,1750.0,1741.0,1764.0,1715.0,95.9078598022461,-13.671439170837402,-41.80165100097656,Left
2468.97509765625,293979,1,1775.0,1763.0,1747.0,1769.0,1757.0,1750.0,1757.0,1733.0,95.9078598022461,-13.671439170837402,-41.80165100097656,Left
2470.97509765625,293979,1,1757.0,1738.0,1775.0,1752.0,1741.0,1753.0,1763.0,1761.0,95.94083404541016,-13.696873664855957,-41.966915130615234,Left
2472.97509765625,293979,1,1785.0,1752.0,1803.0,1749.0,1751.0,1753.0,1764.0,1747.0,95.94083404541016,-13.696873664855957,-41.966915130615234,Left
2476.230224609375,293980,1,1772.0,1757.0,1720.0,1755.0,1751.0,1755.0,1733.0,1720.0,95.94083404541016,-13.696873664855957,-41.966915130615234,Left
2478.230224609375,293980,1,1766.0,1755.0,1751.0,1763.0,1753.0,1753.0,1763.0,1755.0,95.94083404541016,-13.696873664855957,-41.966915130615234,Left
2480.230224609375,293980,1,1737.0,1757.0,1784.0,1759.0,1757.0,1756.0,1767.0,1765.0,95.94083404541016,-13.696873664855957,-41.966915130615234,Left
2482.230224609375,293980,1,1727.0,1751.0,1791.0,1764.0,1754.0,1751.0,1752.0,1773.0,95.94083404541016,-13.696873664855957,-41.966915130615234,Left
2484.230224609375,293980,1,1727.0,1757.0,1675.0,1748.0,1753.0,1755.0,1752.0,1711.0,95.94083404541016,-13.696873664855957,-41.966915130615234,Left
2496.84033203125,293981,1,1746.0,1756.0,1696.0,1753.0,1709.0,1747.0,1759.0,1739.0,95.94083404541016,-13.696873664855957,-41.966915130615234,Left
2498.84033203125,293981,1,1781.0,1755.0,1748.0,1748.0,1753.0,1749.0,1762.0,1750.0,95.94083404541016,-13.696873664855957,-41.966915130615234,Left
2500.84033203125,293981,1,1779.0,1749.0,1748.0,1762.0,1751.0,1740.0,1757.0,1725.0,95.94083404541016,-13.696873664855957,-41.966915130615234,Left
2502.84033203125,293981,1,1787.0,1749.0,1716.0,1749.0,1753.0,1753.0,1759.0,1720.0,95.94083404541016,-13.696873664855957,-41.966915130615234,Left
2504.84033203125,293981,1,1779.0,1757.0,1785.0,1769.0,1753.0,1749.0,1763.0,1734.0,95.94083404541016,-13.696873664855957,-41.966915130615234,Left
2497.727294921875,293982,1,1778.0,1751.0,1813.0,1767.0,1754.0,1754.0,1764.0,1758.0,95.94083404541016,-13.696873664855957,-41.966915130615234,Left
2499.727294921875,293982,1,1764.0,1756.0,1773.0,1766.0,1753.0,1753.0,1766.0,1764.0,95.94083404541016,-13.696873664855957,-41.966915130615234,Left
2501.727294921875,293982,1,1734.0,1775.0,1739.0,1761.0,1753.0,1752.0,1765.0,1755.0,95.94083404541016,-13.696873664855957,-41.966915130615234,Left
2503.727294921875,293982,1,1721.0,1755.0,1721.0,1765.0,1754.0,1755.0,1763.0,1743.0,95.94083404541016,-13.696873664855957,-41.966915130615234,Left
2505.727294921875,293982,1,1725.0,1762.0,1735.0,1763.0,1755.0,1747.0,1763.0,1774.0,95.94083404541016,-13.696873664855957,-41.966915130615234,Left
2500.313232421875,293983,1,1751.0,1766.0,1758.0,1753.0,1753.0,1741.0,1753.0,1769.0,95.94083404541016,-13.696873664855957,-41.966915130615234,Left
2502.313232421875,293983,1,1773.0,1755.0,1774.0,1753.0,1751.0,1743.0,1763.0,1763.0,95.94083404541016,-13.696873664855957,-41.966915130615234,Left
2504.313232421875,293983,1,1783.0,1749.0,1727.0,1750.0,1756.0,1750.0,1763.0,1701.0,95.94083404541016,-13.696873664855957,-41.966915130615234,Left
2506.313232421875,293983,1,1779.0,1751.0,1757.0,1755.0,1764.0,1755.0,1759.0,1742.0,95.94083404541016,-13.696873664855957,-41.966915130615234,Left
2508.313232421875,293983,1,1772.0,1761.0,1875.0,1765.0,1757.0,1743.0,1765.0,1807.0,95.94083404541016,-13.696873664855957,-41.966915130615234,Left
2508.05712890625,293984,1,1771.0,1725.0,1883.0,1763.0,1755.0,1752.0,1765.0,1735.0,95.94083404541016,-13.696873664855957,-41.966915130615234,Left
2510.05712890625,293984,1,1751.0,1748.0,1571.0,1739.0,1741.0,1759.0,1739.0,1681.0,95.94083404541016,-13.696873664855957,-41.966915130615234,Left
2512.05712890625,293984,1,1741.0,1755.0,1581.0,1735.0,1735.0,1753.0,1763.0,1677.0,95.94083404541016,-13.696873664855957,-41.966915130615234,Left
2514.05712890625,293984,1,1716.0,1759.0,1685.0,1741.0,1751.0,1743.0,1756.0,1719.0,95.94083404541016,-13.696873664855957,-41.966915130615234,Left
2516.05712890625,293984,1,1725.0,1766.0,1813.0,1771.0,1740.0,1751.0,1753.0,1819.0,95.94083404541016,-13.696873664855957,-41.966915130615234,Left
2527.829345703125,293985,1,1753.0,1768.0,1876.0,1782.0,1739.0,1755.0,1757.0,1813.0,95.94083404541016,-13.696873664855957,-41.966915130615234,Left
2529.829345703125,293985,1,1773.0,1755.0,1850.0,1758.0,1753.0,1751.0,1759.0,1797.0,95.94083404541016,-13.696873664855957,-41.966915130615234,Left
2531.829345703125,293985,1,1783.0,1752.0,1762.0,1763.0,1752.0,1752.0,1765.0,1735.0,95.94083404541016,-13.696873664855957,-41.966915130615234,Left
2533.829345703125,293985,1,1787.0,1755.0,1717.0,1757.0,1751.0,1755.0,1763.0,1708.0,95.94083404541016,-13.696873664855957,-41.966915130615234,Left
2535.829345703125,293985,1,1785.0,1743.0,1757.0,1761.0,1755.0,1752.0,1753.0,1737.0,95.94083404541016,-13.696873664855957,-41.966915130615234,Left
2534.3701171875,293986,1,1771.0,1781.0,1771.0,1781.0,1754.0,1752.0,1764.0,1750.0,95.94083404541016,-13.696873664855957,-41.966915130615234,Left
2536.3701171875,293986,1,1757.0,1763.0,1733.0,1757.0,1745.0,1753.0,1765.0,1725.0,95.88764953613281,-13.656556129455566,-42.118919372558594,Left
2538.3701171875,293986,1,1736.0,1757.0,1717.0,1753.0,1751.0,1750.0,1764.0,1733.0,95.88764953613281,-13.656556129455566,-42.118919372558594,Left
2540.3701171875,293986,1,1701.0,1775.0,1782.0,1755.0,1753.0,1755.0,1767.0,1759.0,95.88764953613281,-13.656556129455566,-42.118919372558594,Left
2542.3701171875,293986,1,1705.0,1747.0,1801.0,1768.0,1753.0,1741.0,1753.0,1771.0,95.88764953613281,-13.656556129455566,-42.118919372558594,Left
2537.952392578125,293987,1,1751.0,1753.0,1717.0,1750.0,1751.0,1753.0,1759.0,1755.0,95.88764953613281,-13.656556129455566,-42.118919372558594,Left
2539.952392578125,293987,1,1771.0,1741.0,1785.0,1755.0,1754.0,1751.0,1759.0,1742.0,95.88764953613281,-13.656556129455566,-42.118919372558594,Left
2541.952392578125,293987,1,1786.0,1755.0,1727.0,1733.0,1755.0,1752.0,1751.0,1723.0,95.88764953613281,-13.656556129455566,-42.118919372558594,Left
2543.952392578125,293987,1,1787.0,1757.0,1791.0,1779.0,1741.0,1753.0,1763.0,1756.0,95.88764953613281,-13.656556129455566,-42.118919372558594,Left
2545.952392578125,293987,1,1787.0,1767.0,1789.0,1757.0,1755.0,1752.0,1757.0,1717.0,95.88764953613281,-13.656556129455566,-42.118919372558594,Left
2558.571044921875,293988,1,1779.0,1743.0,1741.0,1763.0,1734.0,1749.0,1755.0,1739.0,95.88764953613281,-13.656556129455566,-42.118919372558594,Left
2560.571044921875,293988,1,1765.0,1765.0,1687.0,1764.0,1752.0,1741.0,1754.0,1727.0,95.88764953613281,-13.656556129455566,-42.118919372558594,Left
2562.571044921875,293988,1,1739.0,1772.0,1816.0,1798.0,1741.0,1746.0,1765.0,1755.0,95.88764953613281,-13.656556129455566,-42.118919372558594,Left
2564.571044921875,293988,1,1721.0,1757.0,1700.0,1741.0,1755.0,1756.0,1753.0,1763.0,95.88764953613281,-13.656556129455566,-42.118919372558594,Left
2566.571044921875,293988,1,1722.0,1725.0,1675.0,1674.0,1757.0,1743.0,1751.0,1739.0,95.88764953613281,-13.656556129455566,-42.118919372558594,Left
2696.107177734375,293989,1,1751.0,1747.0,1769.0,1765.0,1753.0,1751.0,1765.0,1757.0,95.88764953613281,-13.656556129455566,-42.118919372558594,Left
2698.107177734375,293989,1,1770.0,1747.0,1752.0,1755.0,1756.0,1753.0,1760.0,1742.0,95.88764953613281,-13.656556129455566,-42.118919372558594,Left
2700.107177734375,293989,1,1774.0,1773.0,1782.0,1785.0,1758.0,1754.0,1762.0,1765.0,95.88764953613281,-13.656556129455566,-42.118919372558594,Left
2702.107177734375,293989,1,1785.0,1747.0,1844.0,1766.0,1751.0,1749.0,1757.0,1787.0,95.88764953613281,-13.656556129455566,-42.118919372558594,Left
2704.107177734375,293989,1,1788.0,1773.0,1771.0,1767.0,1751.0,1751.0,1751.0,1759.0,95.88764953613281,-13.656556129455566,-42.118919372558594,Left
2697.38818359375,293990,1,1779.0,1748.0,1702.0,1784.0,1741.0,1752.0,1763.0,1740.0,95.88764953613281,-13.656556129455566,-42.118919372558594,Left
2699.38818359375,293990,1,1765.0,1783.0,1781.0,1739.0,1727.0,1742.0,1751.0,1765.0,95.88764953613281,-13.656556129455566,-42.118919372558594,Left
2701.38818359375,293990,1,1743.0,1735.0,1711.0,1739.0,1743.0,1756.0,1755.0,1719.0,95.88764953613281,-13.656556129455566,-42.118919372558594,Left
2703.38818359375,293990,1,1721.0,1752.0,1695.0,1763.0,1753.0,1755.0,1767.0,1727.0,95.88764953613281,-13.656556129455566,-42.118919372558594,Left
2705.38818359375,293990,1,1717.0,1739.0,1747.0,1739.0,1750.0,1755.0,1759.0,1779.0,95.88764953613281,-13.656556129455566,-42.118919372558594,Left
2698.18798828125,293991,1,1748.0,1765.0,1741.0,1767.0,1754.0,1743.0,1757.0,1763.0,95.88764953613281,-13.656556129455566,-42.118919372558594,Left
2700.18798828125,293991,1,1775.0,1763.0,1820.0,1788.0,1755.0,1741.0,1763.0,1785.0,95.88764953613281,-13.656556129455566,-42.118919372558594,Left
2702.18798828125,293991,1,1783.0,1715.0,1818.0,1733.0,1755.0,1751.0,1757.0,1811.0,95.88764953613281,-13.656556129455566,-42.118919372558594,Left
2704.18798828125,293991,1,1785.0,1749.0,1845.0,1765.0,1751.0,1755.0,1757.0,1757.0,95.88764953613281,-13.656556129455566,-42.118919372558594,Left
2706.18798828125,293991,1,1779.0,1821.0,1715.0,1801.0,1741.0,1751.0,1751.0,1715.0,95.88764953613281,-13.656556129455566,-42.118919372558594,Left
2699.162353515625,293992,1,1775.0,1755.0,1653.0,1725.0,1755.0,1741.0,1765.0,1724.0,95.88764953613281,-13.656556129455566,-42.118919372558594,Left
2701.162353515625,293992,1,1765.0,1773.0,1753.0,1770.0,1743.0,1753.0,1763.0,1734.0,95.88764953613281,-13.656556129455566,-42.118919372558594,Left
2703.162353515625,293992,1,1727.0,1751.0,1740.0,1740.0,1753.0,1751.0,1765.0,1735.0,95.88764953613281,-13.656556129455566,-42.118919372558594,Left
2705.162353515625,293992,1,1721.0,1767.0,1740.0,1725.0,1753.0,1757.0,1758.0,1751.0,95.87893676757812,-13.84695053100586,-42.24870681762695,Left
2707.162353515625,293992,1,1721.0,1748.0,1733.0,1764.0,1755.0,1753.0,1759.0,1741.0,95.87893676757812,-13.84695053100586,-42.24870681762695,Left
2700.186279296875,293993,1,1746.0,1765.0,1705.0,1771.0,1755.0,1751.0,1763.0,1706.0,95.87893676757812,-13.84695053100586,-42.24870681762695,Left
2702.186279296875,293993,1,1762.0,1728.0,1688.0,1747.0,1756.0,1753.0,1751.0,1715.0,95.87893676757812,-13.84695053100586,-42.24870681762695,Left
2704.186279296875,293993,1,1775.0,1739.0,1812.0,1762.0,1755.0,1739.0,1750.0,1813.0,95.87893676757812,-13.84695053100586,-42.24870681762695,Left
2706.186279296875,293993,1,1785.0,1781.0,1884.0,1779.0,1752.0,1750.0,1763.0,1822.0,95.87893676757812,-13.84695053100586,-42.24870681762695,Left
2708.186279296875,293993,1,1773.0,1736.0,1865.0,1756.0,1751.0,1752.0,1767.0,1740.0,95.87893676757812,-13.84695053100586,-42.24870681762695,Left
2700.73828125,293994,1,1757.0,1738.0,1705.0,1747.0,1748.0,1739.0,1763.0,1705.0,95.87893676757812,-13.84695053100586,-42.24870681762695,Left
2702.73828125,293994,1,1749.0,1758.0,1671.0,1741.0,1749.0,1741.0,1752.0,1719.0,95.87893676757812,-13.84695053100586,-42.24870681762695,Left
2704.73828125,293994,1,1735.0,1736.0,1766.0,1779.0,1755.0,1747.0,1765.0,1741.0,95.87893676757812,-13.84695053100586,-42.24870681762695,Left
2706.73828125,293994,1,1709.0,1763.0,1727.0,1755.0,1751.0,1757.0,1765.0,1756.0,95.87893676757812,-13.84695053100586,-42.24870681762695,Left
2708.73828125,293994,1,1721.0,1769.0,1737.0,1747.0,1747.0,1754.0,1765.0,1754.0,95.87893676757812,-13.84695053100586,-42.24870681762695,Left
2701.279296875,293995,1,1736.0,1741.0,1803.0,1771.0,1751.0,1749.0,1763.0,1784.0,95.87893676757812,-13.84695053100586,-42.24870681762695,Left
2703.279296875,293995,1,1765.0,1756.0,1719.0,1758.0,1753.0,1751.0,1766.0,1711.0,95.87893676757812,-13.84695053100586,-42.24870681762695,Left
2705.279296875,293995,1,1781.0,1759.0,1878.0,1767.0,1752.0,1755.0,1764.0,1785.0,95.87893676757812,-13.84695053100586,-42.24870681762695,Left
2707.279296875,293995,1,1774.0,1765.0,1811.0,1769.0,1753.0,1741.0,1765.0,1749.0,95.87893676757812,-13.84695053100586,-42.24870681762695,Left
2709.279296875,293995,1,1785.0,1727.0,1623.0,1736.0,1743.0,1751.0,1758.0,1663.0,95.87893676757812,-13.84695053100586,-42.24870681762695,Left
2701.831298828125,293996,1,1765.0,1761.0,1763.0,1753.0,1755.0,1755.0,1761.0,1765.0,95.87893676757812,-13.84695053100586,-42.24870681762695,Left
2703.831298828125,293996,1,1765.0,1787.0,1801.0,1769.0,1754.0,1755.0,1763.0,1754.0,95.87893676757812,-13.84695053100586,-42.24870681762695,Left
2705.831298828125,293996,1,1741.0,1755.0,1771.0,1737.0,1752.0,1756.0,1765.0,1737.0,95.87893676757812,-13.84695053100586,-42.24870681762695,Left
2707.831298828125,293996,1,1720.0,1756.0,1715.0,1753.0,1755.0,1752.0,1766.0,1721.0,95.87893676757812,-13.84695053100586,-42.24870681762695,Left
2709.831298828125,293996,1,1721.0,1765.0,1719.0,1752.0,1741.0,1753.0,1764.0,1767.0,95.87893676757812,-13.84695053100586,-42.24870681762695,Left
2702.38427734375,293997,1,1749.0,1751.0,1788.0,1771.0,1755.0,1743.0,1749.0,1801.0,95.87893676757812,-13.84695053100586,-42.24870681762695,Left
2704.38427734375,293997,1,1771.0,1747.0,1787.0,1736.0,1749.0,1752.0,1763.0,1757.0,95.87893676757812,-13.84695053100586,-42.24870681762695,Left
2706.38427734375,293997,1,1785.0,1757.0,1807.0,1768.0,1743.0,1747.0,1764.0,1739.0,95.87893676757812,-13.84695053100586,-42.24870681762695,Left
2708.38427734375,293997,1,1782.0,1765.0,1749.0,1757.0,1755.0,1752.0,1765.0,1721.0,95.87893676757812,-13.84695053100586,-42.24870681762695,Left
2710.38427734375,293997,1,1784.0,1755.0,1741.0,1763.0,1753.0,1751.0,1759.0,1721.0,95.87893676757812,-13.84695053100586,-42.24870681762695,Left
2702.9091796875,293998,1,1781.0,1764.0,1771.0,1753.0,1753.0,1752.0,1762.0,1739.0,95.87893676757812,-13.84695053100586,-42.24870681762695,Left
2704.9091796875,293998,1,1769.0,1767.0,1739.0,1765.0,1735.0,1739.0,1763.0,1742.0,95.87893676757812,-13.84695053100586,-42.24870681762695,Left
2706.9091796875,293998,1,1743.0,1766.0,1671.0,1745.0,1754.0,1755.0,1765.0,1721.0,95.87893676757812,-13.84695053100586,-42.24870681762695,Left
2708.9091796875,293998,1,1724.0,1756.0,1830.0,1763.0,1756.0,1757.0,1766.0,1772.0,95.87893676757812,-13.84695053100586,-42.24870681762695,Left
2710.9091796875,293998,1,1725.0,1741.0,1724.0,1775.0,1752.0,1752.0,1763.0,1755.0,95.87893676757812,-13.84695053100586,-42.24870681762695,Left
2703.438232421875,293999,1,1752.0,1762.0,1797.0,1759.0,1745.0,1754.0,1762.0,1803.0,95.87893676757812,-13.84695053100586,-42.24870681762695,Left
2705.438232421875,293999,1,1773.0,1741.0,1753.0,1721.0,1743.0,1739.0,1759.0,1754.0,95.72908020019531,-14.525636672973633,-42.14311599731445,Left
2707.438232421875,293999,1,1775.0,1739.0,1815.0,1758.0,1753.0,1753.0,1751.0,1748.0,95.72908020019531,-14.525636672973633,-42.14311599731445,Left
2709.438232421875,293999,1,1780.0,1761.0,1733.0,1771.0,1753.0,1754.0,1753.0,1739.0,95.72908020019531,-14.525636672973633,-42.14311599731445,Left
2711.438232421875,293999,1,1785.0,1747.0,1756.0,1757.0,1753.0,1750.0,1763.0,1717.0,95.72908020019531,-14.525636672973633,-42.14311599731445,Left
2703.8662109375,294000,1,1769.0,1772.0,1711.0,1757.0,1755.0,1750.0,1753.0,1743.0,95.72908020019531,-14.525636672973633,-42.14311599731445,Left
2705.8662109375,294000,1,1755.0,1756.0,1763.0,1776.0,1753.0,1751.0,1751.0,1736.0,95.72908020019531,-14.525636672973633,-42.14311599731445,Left
2707.8662109375,294000,1,1736.0,1767.0,1765.0,1764.0,1749.0,1742.0,1765.0,1742.0,95.72908020019531,-14.525636672973633,-42.14311599731445,Left
2709.8662109375,294000,1,1725.0,1763.0,1735.0,1753.0,1755.0,1743.0,1759.0,1733.0,95.72908020019531,-14.525636672973633,-42.14311599731445,Left
2711.8662109375,294000,1,1726.0,1755.0,1735.0,1747.0,1753.0,1751.0,1753.0,1749.0,95.72908020019531,-14.525636672973633,-42.14311599731445,Left
2704.359375,294001,1,1743.0,1773.0,1765.0,1783.0,1743.0,1753.0,1762.0,1782.0,95.72908020019531,-14.525636672973633,-42.14311599731445,Left
2706.359375,294001,1,1765.0,1749.0,1813.0,1769.0,1754.0,1751.0,1759.0,1819.0,95.72908020019531,-14.525636672973633,-42.14311599731445,Left
2708.359375,294001,1,1785.0,1747.0,1766.0,1751.0,1753.0,1751.0,1753.0,1739.0,95.72908020019531,-14.525636672973633,-42.14311599731445,Left
2710.359375,294001,1,1784.0,1741.0,1750.0,1751.0,1751.0,1751.0,1765.0,1724.0,95.72908020019531,-14.525636672973633,-42.14311599731445,Left
2712.359375,294001,1,1773.0,1791.0,1704.0,1745.0,1751.0,1741.0,1764.0,1705.0,95.72908020019531,-14.525636672973633,-42.14311599731445,Left
2704.834228515625,294002,1,1773.0,1759.0,1741.0,1787.0,1757.0,1739.0,1755.0,1711.0,95.72908020019531,-14.525636672973633,-42.14311599731445,Left
2706.834228515625,294002,1,1755.0,1746.0,1719.0,1751.0,1743.0,1753.0,1763.0,1737.0,95.72908020019531,-14.525636672973633,-42.14311599731445,Left
2708.834228515625,294002,1,1747.0,1787.0,1781.0,1757.0,1753.0,1755.0,1767.0,1783.0,95.72908020019531,-14.525636672973633,-42.14311599731445,Left
2710.834228515625,294002,1,1717.0,1771.0,1839.0,1767.0,1754.0,1745.0,1752.0,1803.0,95.72908020019531,-14.525636672973633,-42.14311599731445,Left
2712.834228515625,294002,1,1715.0,1735.0,1767.0,1754.0,1743.0,1753.0,1763.0,1757.0,95.72908020019531,-14.525636672973633,-42.14311599731445,Left
2705.1650390625,294003,1,1740.0,1746.0,1759.0,1757.0,1746.0,1741.0,1761.0,1751.0,95.72908020019531,-14.525636672973633,-42.14311599731445,Left
2707.1650390625,294003,1,1765.0,1757.0,1742.0,1737.0,1755.0,1753.0,1763.0,1727.0,95.72908020019531,-14.525636672973633,-42.14311599731445,Left
2709.1650390625,294003,1,1775.0,1763.0,1703.0,1737.0,1755.0,1752.0,1752.0,1707.0,95.72908020019531,-14.525636672973633,-42.14311599731445,Left
2711.1650390625,294003,1,1779.0,1763.0,1757.0,1739.0,1753.0,1755.0,1758.0,1753.0,95.72908020019531,-14.525636672973633,-42.14311599731445,Left
2713.1650390625,294003,1,1787.0,1751.0,1769.0,1765.0,1765.0,1741.0,1745.0,1739.0,95.72908020019531,-14.525636672973633,-42.14311599731445,Left
2710.452392578125,294004,1,1778.0,1767.0,1766.0,1768.0,1747.0,1743.0,1749.0,1727.0,95.72908020019531,-14.525636672973633,-42.14311599731445,Left
2712.452392578125,294004,1,1765.0,1755.0,1719.0,1753.0,1753.0,1741.0,1753.0,1711.0,95.72908020019531,-14.525636672973633,-42.14311599731445,Left
2714.452392578125,294004,1,1748.0,1757.0,1784.0,1747.0,1719.0,1756.0,1763.0,1756.0,95.72908020019531,-14.525636672973633,-42.14311599731445,Left
2716.452392578125,294004,1,1721.0,1751.0,1771.0,1757.0,1753.0,1755.0,1767.0,1771.0,95.72908020019531,-14.525636672973633,-42.14311599731445,Left
2718.452392578125,294004,1,1726.0,1758.0,1762.0,1756.0,1711.0,1755.0,1763.0,1786.0,95.72908020019531,-14.525636672973633,-42.14311599731445,Left
2716.55517578125,294005,1,1751.0,1753.0,1751.0,1727.0,1753.0,1749.0,1753.0,1759.0,95.72908020019531,-14.525636672973633,-42.14311599731445,Left
2718.55517578125,294005,1,1771.0,1738.0,1708.0,1743.0,1755.0,1753.0,1763.0,1740.0,95.72908020019531,-14.525636672973633,-42.14311599731445,Left
2720.55517578125,294005,1,1780.0,1768.0,1822.0,1768.0,1742.0,1743.0,1763.0,1780.0,95.72908020019531,-14.525636672973633,-42.14311599731445,Left
2722.55517578125,294005,1,1784.0,1752.0,1703.0,1755.0,1753.0,1748.0,1759.0,1689.0,96.94466400146484,-14.996047019958496,-42.46238708496094,Left
2724.55517578125,294005,1,1785.0,1758.0,1705.0,1747.0,1741.0,1755.0,1763.0,1734.0,96.94466400146484,-14.996047019958496,-42.46238708496094,Left
2726.63525390625,294006,1,1772.0,1752.0,1747.0,1740.0,1753.0,1755.0,1758.0,1741.0,96.94466400146484,-14.996047019958496,-42.46238708496094,Left
2728.63525390625,294006,1,1765.0,1771.0,1767.0,1767.0,1756.0,1753.0,1752.0,1753.0,96.94466400146484,-14.996047019958496,-42.46238708496094,Left
2730.63525390625,294006,1,1745.0,1757.0,1755.0,1756.0,1741.0,1754.0,1764.0,1757.0,96.94466400146484,-14.996047019958496,-42.46238708496094,Left
2732.63525390625,294006,1,1733.0,1763.0,1773.0,1763.0,1751.0,1756.0,1766.0,1764.0,96.94466400146484,-14.996047019958496,-42.46238708496094,Left
2734.63525390625,294006,1,1727.0,1761.0,1727.0,1755.0,1741.0,1755.0,1765.0,1703.0,96.94466400146484,-14.996047019958496,-42.46238708496094,Left
2746.88623046875,294007,1,1751.0,1752.0,1677.0,1723.0,1751.0,1754.0,1764.0,1719.0,96.94466400146484,-14.996047019958496,-42.46238708496094,Left
2748.88623046875,294007,1,1774.0,1750.0,1769.0,1773.0,1754.0,1753.0,1760.0,1791.0,96.94466400146484,-14.996047019958496,-42.46238708496094,Left
2750.88623046875,294007,1,1783.0,1741.0,1724.0,1775.0,1756.0,1739.0,1759.0,1747.0,96.94466400146484,-14.996047019958496,-42.46238708496094,Left
2752.88623046875,294007,1,1781.0,1785.0,1823.0,1768.0,1755.0,1743.0,1753.0,1797.0,96.94466400146484,-14.996047019958496,-42.46238708496094,Left
2754.88623046875,294007,1,1781.0,1756.0,1774.0,1787.0,1753.0,1753.0,1758.0,1737.0,96.94466400146484,-14.996047019958496,-42.46238708496094,Left
2750.000244140625,294008,1,1773.0,1759.0,1708.0,1747.0,1743.0,1741.0,1762.0,1715.0,96.94466400146484,-14.996047019958496,-42.46238708496094,Left
2752.000244140625,294008,1,1765.0,1754.0,1781.0,1751.0,1747.0,1753.0,1763.0,1735.0,96.94466400146484,-14.996047019958496,-42.46238708496094,Left
2754.000244140625,294008,1,1749.0,1742.0,1775.0,1766.0,1747.0,1747.0,1763.0,1735.0,96.94466400146484,-14.996047019958496,-42.46238708496094,Left
2756.000244140625,294008,1,1733.0,1757.0,1736.0,1764.0,1743.0,1752.0,1766.0,1739.0,96.94466400146484,-14.996047019958496,-42.46238708496094,Left
2758.000244140625,294008,1,1735.0,1765.0,1755.0,1763.0,1751.0,1755.0,1761.0,1771.0,96.94466400146484,-14.996047019958496,-42.46238708496094,Left
2768.399169921875,294009,1,1743.0,1764.0,1755.0,1765.0,1751.0,1749.0,1759.0,1757.0,96.94466400146484,-14.996047019958496,-42.46238708496094,Left
2770.399169921875,294009,1,1773.0,1758.0,1741.0,1763.0,1753.0,1752.0,1753.0,1747.0,96.94466400146484,-14.996047019958496,-42.46238708496094,Left
2772.399169921875,294009,1,1785.0,1764.0,1751.0,1753.0,1751.0,1747.0,1757.0,1747.0,96.94466400146484,-14.996047019958496,-42.46238708496094,Left
2774.399169921875,294009,1,1789.0,1755.0,1754.0,1763.0,1755.0,1753.0,1753.0,1751.0,96.94466400146484,-14.996047019958496,-42.46238708496094,Left
2776.399169921875,294009,1,1787.0,1757.0,1771.0,1771.0,1755.0,1743.0,1763.0,1742.0,96.94466400146484,-14.996047019958496,-42.46238708496094,Left
2783.819091796875,294010,1,1776.0,1765.0,1745.0,1741.0,1762.0,1748.0,1762.0,1742.0,96.94466400146484,-14.996047019958496,-42.46238708496094,Left
2785.819091796875,294010,1,1769.0,1759.0,1756.0,1755.0,1752.0,1755.0,1752.0,1736.0,96.94466400146484,-14.996047019958496,-42.46238708496094,Left
2787.819091796875,294010,1,1737.0,1755.0,1748.0,1763.0,1751.0,1741.0,1765.0,1737.0,96.94466400146484,-14.996047019958496,-42.46238708496094,Left
2789.819091796875,294010,1,1699.0,1739.0,1759.0,1771.0,1752.0,1741.0,1758.0,1765.0,96.94466400146484,-14.996047019958496,-42.46238708496094,Left
2791.819091796875,294010,1,1728.0,1745.0,1771.0,1781.0,1755.0,1753.0,1766.0,1785.0,96.94466400146484,-14.996047019958496,-42.46238708496094,Left
2790.770263671875,294011,1,1750.0,1741.0,1734.0,1745.0,1741.0,1764.0,1765.0,1749.0,96.94466400146484,-14.996047019958496,-42.46238708496094,Left
2792.770263671875,294011,1,1772.0,1755.0,1743.0,1709.0,1754.0,1749.0,1759.0,1724.0,96.94466400146484,-14.996047019958496,-42.46238708496094,Left
2794.770263671875,294011,1,1773.0,1779.0,1755.0,1736.0,1749.0,1752.0,1751.0,1748.0,96.94466400146484,-14.996047019958496,-42.46238708496094,Left
2796.770263671875,294011,1,1790.0,1768.0,1695.0,1759.0,1751.0,1752.0,1763.0,1735.0,96.94466400146484,-14.996047019958496,-42.46238708496094,Left
2798.770263671875,294011,1,1787.0,1741.0,1801.0,1753.0,1750.0,1734.0,1763.0,1779.0,96.94466400146484,-14.996047019958496,-42.46238708496094,Left
2791.411376953125,294012,1,1774.0,1759.0,1823.0,1771.0,1753.0,1752.0,1765.0,1771.0,96.94466400146484,-14.996047019958496,-42.46238708496094,Left
2793.411376953125,294012,1,1769.0,1759.0,1755.0,1775.0,1741.0,1751.0,1765.0,1709.0,97.33548736572266,-15.541727066040039,-42.85261535644531,Left
2795.411376953125,294012,1,1747.0,1767.0,1737.0,1770.0,1742.0,1755.0,1753.0,1757.0,97.33548736572266,-15.541727066040039,-42.85261535644531,Left
2797.411376953125,294012,1,1725.0,1749.0,1751.0,1741.0,1750.0,1743.0,1763.0,1774.0,97.33548736572266,-15.541727066040039,-42.85261535644531,Left
2799.411376953125,294012,1,1735.0,1752.0,1765.0,1773.0,1752.0,1741.0,1753.0,1767.0,97.33548736572266,-15.541727066040039,-42.85261535644531,Left
2797.523193359375,294013,1,1751.0,1751.0,1724.0,1753.0,1748.0,1747.0,1763.0,1724.0,97.33548736572266,-15.541727066040039,-42.85261535644531,Left
2799.523193359375,294013,1,1773.0,1761.0,1757.0,1753.0,1749.0,1750.0,1759.0,1741.0,97.33548736572266,-15.541727066040039,-42.85261535644531,Left
2801.523193359375,294013,1,1781.0,1747.0,1719.0,1736.0,1753.0,1741.0,1759.0,1727.0,97.33548736572266,-15.541727066040039,-42.85261535644531,Left
2803.523193359375,294013,1,1783.0,1783.0,1773.0,1751.0,1753.0,1755.0,1761.0,1737.0,97.33548736572266,-15.541727066040039,-42.85261535644531,Left
2805.523193359375,294013,1,1786.0,1768.0,1849.0,1767.0,1742.0,1747.0,1759.0,1755.0,97.33548736572266,-15.541727066040039,-42.85261535644531,Left
2812.99609375,294014,1,1776.0,1751.0,1641.0,1752.0,1752.0,1756.0,1755.0,1707.0,97.33548736572266,-15.541727066040039,-42.85261535644531,Left
2814.99609375,294014,1,1767.0,1769.0,1696.0,1773.0,1753.0,1752.0,1763.0,1753.0,97.33548736572266,-15.541727066040039,-42.85261535644531,Left
2816.99609375,294014,1,1740.0,1753.0,1831.0,1757.0,1755.0,1752.0,1766.0,1787.0,97.33548736572266,-15.541727066040039,-42.85261535644531,Left
2818.99609375,294014,1,1725.0,1751.0,1737.0,1779.0,1746.0,1755.0,1767.0,1745.0,97.33548736572266,-15.541727066040039,-42.85261535644531,Left
2820.99609375,294014,1,1725.0,1763.0,1746.0,1765.0,1753.0,1755.0,1754.0,1739.0,97.33548736572266,-15.541727066040039,-42.85261535644531,Left
2829.942138671875,294015,1,1749.0,1742.0,1756.0,1752.0,1752.0,1755.0,1762.0,1769.0,97.33548736572266,-15.541727066040039,-42.85261535644531,Left
2831.942138671875,294015,1,1771.0,1745.0,1748.0,1727.0,1754.0,1741.0,1762.0,1764.0,97.33548736572266,-15.541727066040039,-42.85261535644531,Left
2833.942138671875,294015,1,1781.0,1764.0,1771.0,1763.0,1755.0,1741.0,1763.0,1738.0,97.33548736572266,-15.541727066040039,-42.85261535644531,Left
2835.942138671875,294015,1,1788.0,1757.0,1717.0,1751.0,1754.0,1749.0,1751.0,1709.0,97.33548736572266,-15.541727066040039,-42.85261535644531,Left
2837.942138671875,294015,1,1787.0,1765.0,1747.0,1758.0,1747.0,1741.0,1765.0,1735.0,97.33548736572266,-15.541727066040039,-42.85261535644531,Left
2830.48828125,294016,1,1779.0,1763.0,1833.0,1757.0,1742.0,1755.0,1759.0,1812.0,97.33548736572266,-15.541727066040039,-42.85261535644531,Left
2832.48828125,294016,1,1765.0,1759.0,1771.0,1765.0,1740.0,1755.0,1751.0,1735.0,97.33548736572266,-15.541727066040039,-42.85261535644531,Left
2834.48828125,294016,1,1736.0,1774.0,1759.0,1811.0,1746.0,1741.0,1759.0,1747.0,97.33548736572266,-15.541727066040039,-42.85261535644531,Left
2836.48828125,294016,1,1717.0,1753.0,1735.0,1763.0,1755.0,1753.0,1759.0,1749.0,97.33548736572266,-15.541727066040039,-42.85261535644531,Left
2838.48828125,294016,1,1727.0,1763.0,1747.0,1753.0,1753.0,1755.0,1763.0,1755.0,97.33548736572266,-15.541727066040039,-42.85261535644531,Left
2839.80322265625,294017,1,1739.0,1727.0,1742.0,1753.0,1753.0,1753.0,1752.0,1763.0,97.33548736572266,-15.541727066040039,-42.85261535644531,Left
2841.80322265625,294017,1,1772.0,1768.0,1773.0,1749.0,1757.0,1749.0,1753.0,1767.0,97.33548736572266,-15.541727066040039,-42.85261535644531,Left
2843.80322265625,294017,1,1773.0,1769.0,1747.0,1770.0,1747.0,1749.0,1765.0,1737.0,97.33548736572266,-15.541727066040039,-42.85261535644531,Left
2845.80322265625,294017,1,1787.0,1748.0,1757.0,1755.0,1742.0,1753.0,1759.0,1722.0,97.33548736572266,-15.541727066040039,-42.85261535644531,Left
2847.80322265625,294017,1,1786.0,1767.0,1752.0,1751.0,1753.0,1755.0,1759.0,1736.0,97.33548736572266,-15.541727066040039,-42.85261535644531,Left
2852.565185546875,294018,1,1774.0,1775.0,1759.0,1747.0,1749.0,1739.0,1762.0,1733.0,97.33548736572266,-15.541727066040039,-42.85261535644531,Left
2854.565185546875,294018,1,1769.0,1757.0,1759.0,1756.0,1751.0,1753.0,1759.0,1743.0,97.33548736572266,-15.541727066040039,-42.85261535644531,Left
2856.565185546875,294018,1,1751.0,1750.0,1743.0,1757.0,1753.0,1741.0,1753.0,1747.0,97.33548736572266,-15.541727066040039,-42.85261535644531,Left
2858.565185546875,294018,1,1723.0,1751.0,1740.0,1759.0,1753.0,1757.0,1765.0,1753.0,97.30069732666016,-16.02156639099121,-43.19868469238281,Left
2860.565185546875,294018,1,1727.0,1755.0,1740.0,1771.0,1741.0,1754.0,1759.0,1769.0,97.30069732666016,-16.02156639099121,-43.19868469238281,Left
2859.417236328125,294019,1,1741.0,1750.0,1751.0,1751.0,1751.0,1753.0,1751.0,1757.0,97.30069732666016,-16.02156639099121,-43.19868469238281,Left
2861.417236328125,294019,1,1771.0,1747.0,1742.0,1752.0,1755.0,1740.0,1752.0,1736.0,97.30069732666016,-16.02156639099121,-43.19868469238281,Left
2863.417236328125,294019,1,1781.0,1749.0,1771.0,1736.0,1753.0,1753.0,1763.0,1755.0,97.30069732666016,-16.02156639099121,-43.19868469238281,Left
2865.417236328125,294019,1,1783.0,1765.0,1802.0,1773.0,1752.0,1752.0,1759.0,1767.0,97.30069732666016,-16.02156639099121,-43.19868469238281,Left
2867.417236328125,294019,1,1785.0,1759.0,1781.0,1751.0,1747.0,1739.0,1757.0,1739.0,97.30069732666016,-16.02156639099121,-43.19868469238281,Left
2874.22119140625,294020,1,1767.0,1755.0,1739.0,1747.0,1753.0,1755.0,1751.0,1709.0,97.30069732666016,-16.02156639099121,-43.19868469238281,Left
2876.22119140625,294020,1,1768.0,1758.0,1726.0,1763.0,1752.0,1749.0,1763.0,1724.0,97.30069732666016,-16.02156639099121,-43.19868469238281,Left
2878.22119140625,294020,1,1749.0,1763.0,1727.0,1787.0,1741.0,1754.0,1765.0,1737.0,97.30069732666016,-16.02156639099121,-43.19868469238281,Left
2880.22119140625,294020,1,1721.0,1767.0,1742.0,1769.0,1752.0,1753.0,1762.0,1779.0,97.30069732666016,-16.02156639099121,-43.19868469238281,Left
2882.22119140625,294020,1,1734.0,1755.0,1817.0,1720.0,1755.0,1743.0,1762.0,1821.0,97.30069732666016,-16.02156639099121,-43.19868469238281,Left
2888.286376953125,294021,1,1751.0,1757.0,1765.0,1765.0,1752.0,1749.0,1763.0,1747.0,97.30069732666016,-16.02156639099121,-43.19868469238281,Left
2890.286376953125,294021,1,1772.0,1752.0,1712.0,1749.0,1741.0,1736.0,1763.0,1727.0,97.30069732666016,-16.02156639099121,-43.19868469238281,Left
2892.286376953125,294021,1,1774.0,1771.0,1740.0,1741.0,1737.0,1747.0,1765.0,1752.0,97.30069732666016,-16.02156639099121,-43.19868469238281,Left
2894.286376953125,294021,1,1787.0,1751.0,1798.0,1759.0,1754.0,1741.0,1758.0,1756.0,97.30069732666016,-16.02156639099121,-43.19868469238281,Left
2896.286376953125,294021,1,1788.0,1750.0,1747.0,1767.0,1751.0,1749.0,1759.0,1727.0,97.30069732666016,-16.02156639099121,-43.19868469238281,Left
2889.006103515625,294022,1,1781.0,1765.0,1764.0,1753.0,1751.0,1741.0,1753.0,1749.0,97.30069732666016,-16.02156639099121,-43.19868469238281,Left
2891.006103515625,294022,1,1764.0,1759.0,1747.0,1757.0,1756.0,1753.0,1763.0,1721.0,97.30069732666016,-16.02156639099121,-43.19868469238281,Left
2893.006103515625,294022,1,1737.0,1756.0,1762.0,1753.0,1753.0,1752.0,1763.0,1752.0,97.30069732666016,-16.02156639099121,-43.19868469238281,Left
2895.006103515625,294022,1,1727.0,1767.0,1811.0,1773.0,1753.0,1756.0,1759.0,1788.0,97.30069732666016,-16.02156639099121,-43.19868469238281,Left
2897.006103515625,294022,1,1720.0,1753.0,1727.0,1768.0,1743.0,1755.0,1763.0,1759.0,97.30069732666016,-16.02156639099121,-43.19868469238281,Left
2902.562255859375,294023,1,1741.0,1737.0,1753.0,1752.0,1743.0,1755.0,1766.0,1759.0,97.30069732666016,-16.02156639099121,-43.19868469238281,Left
2904.562255859375,294023,1,1773.0,1755.0,1757.0,1773.0,1755.0,1750.0,1761.0,1757.0,97.30069732666016,-16.02156639099121,-43.19868469238281,Left
2906.562255859375,294023,1,1785.0,1765.0,1735.0,1762.0,1746.0,1753.0,1753.0,1733.0,97.30069732666016,-16.02156639099121,-43.19868469238281,Left
2908.562255859375,294023,1,1787.0,1757.0,1757.0,1757.0,1755.0,1753.0,1759.0,1725.0,97.30069732666016,-16.02156639099121,-43.19868469238281,Left
2910.562255859375,294023,1,1784.0,1767.0,1743.0,1745.0,1752.0,1753.0,1757.0,1735.0,97.30069732666016,-16.02156639099121,-43.19868469238281,Left
2909.8662109375,294024,1,1769.0,1768.0,1769.0,1769.0,1747.0,1749.0,1751.0,1725.0,97.30069732666016,-16.02156639099121,-43.19868469238281,Left
2911.8662109375,294024,1,1771.0,1746.0,1765.0,1755.0,1741.0,1753.0,1759.0,1739.0,97.30069732666016,-16.02156639099121,-43.19868469238281,Left
2913.8662109375,294024,1,1743.0,1755.0,1688.0,1759.0,1753.0,1755.0,1765.0,1737.0,97.30069732666016,-16.02156639099121,-43.19868469238281,Left
2915.8662109375,294024,1,1735.0,1749.0,1765.0,1768.0,1753.0,1752.0,1756.0,1785.0,97.30069732666016,-16.02156639099121,-43.19868469238281,Left
2917.8662109375,294024,1,1725.0,1766.0,1759.0,1762.0,1743.0,1742.0,1765.0,1773.0,97.30069732666016,-16.02156639099121,-43.19868469238281,Left
2916.6142578125,294025,1,1742.0,1706.0,1779.0,1756.0,1753.0,1755.0,1759.0,1747.0,97.80718994140625,-16.319942474365234,-43.45001220703125,Left
2918.6142578125,294025,1,1759.0,1722.0,1753.0,1783.0,1754.0,1751.0,1750.0,1740.0,97.80718994140625,-16.319942474365234,-43.45001220703125,Left
2920.6142578125,294025,1,1780.0,1757.0,1711.0,1738.0,1753.0,1750.0,1763.0,1720.0,97.80718994140625,-16.319942474365234,-43.45001220703125,Left
2922.6142578125,294025,1,1785.0,1756.0,1756.0,1747.0,1753.0,1749.0,1757.0,1751.0,97.80718994140625,-16.319942474365234,-43.45001220703125,Left
2924.6142578125,294025,1,1785.0,1763.0,1769.0,1758.0,1755.0,1753.0,1763.0,1757.0,97.80718994140625,-16.319942474365234,-43.45001220703125,Left
2931.9033203125,294026,1,1779.0,1759.0,1767.0,1750.0,1755.0,1752.0,1763.0,1716.0,97.80718994140625,-16.319942474365234,-43.45001220703125,Left
2933.9033203125,294026,1,1767.0,1772.0,1689.0,1772.0,1753.0,1752.0,1759.0,1717.0,97.80718994140625,-16.319942474365234,-43.45001220703125,Left
2935.9033203125,294026,1,1751.0,1755.0,1772.0,1773.0,1753.0,1752.0,1759.0,1775.0,97.80718994140625,-16.319942474365234,-43.45001220703125,Left
2937.9033203125,294026,1,1735.0,1756.0,1801.0,1751.0,1749.0,1751.0,1763.0,1773.0,97.80718994140625,-16.319942474365234,-43.45001220703125,Left
2939.9033203125,294026,1,1719.0,1763.0,1751.0,1754.0,1747.0,1752.0,1752.0,1753.0,97.80718994140625,-16.319942474365234,-43.45001220703125,Left
2936.34228515625,294027,1,1747.0,1755.0,1756.0,1757.0,1753.0,1749.0,1763.0,1752.0,97.80718994140625,-16.319942474365234,-43.45001220703125,Left
2938.34228515625,294027,1,1768.0,1754.0,1749.0,1761.0,1752.0,1755.0,1762.0,1747.0,97.80718994140625,-16.319942474365234,-43.45001220703125,Left
2940.34228515625,294027,1,1775.0,1755.0,1757.0,1758.0,1751.0,1749.0,1752.0,1738.0,97.80718994140625,-16.319942474365234,-43.45001220703125,Left
2942.34228515625,294027,1,1789.0,1757.0,1755.0,1759.0,1749.0,1749.0,1759.0,1735.0,97.80718994140625,-16.319942474365234,-43.45001220703125,Left
2944.34228515625,294027,1,1787.0,1763.0,1753.0,1772.0,1753.0,1747.0,1763.0,1740.0,97.80718994140625,-16.319942474365234,-43.45001220703125,Left
2949.57421875,294028,1,1780.0,1757.0,1753.0,1757.0,1753.0,1754.0,1765.0,1747.0,97.80718994140625,-16.319942474365234,-43.45001220703125,Left
2951.57421875,294028,1,1769.0,1753.0,1768.0,1779.0,1752.0,1749.0,1765.0,1749.0,97.80718994140625,-16.319942474365234,-43.45001220703125,Left
2953.57421875,294028,1,1738.0,1757.0,1738.0,1757.0,1755.0,1755.0,1763.0,1733.0,97.80718994140625,-16.319942474365234,-43.45001220703125,Left
2955.57421875,294028,1,1736.0,1757.0,1751.0,1763.0,1752.0,1755.0,1767.0,1743.0,97.80718994140625,-16.319942474365234,-43.45001220703125,Left
2957.57421875,294028,1,1718.0,1769.0,1779.0,1790.0,1748.0,1741.0,1765.0,1789.0,97.80718994140625,-16.319942474365234,-43.45001220703125,Left
2962.027099609375,294029,1,1750.0,1743.0,1785.0,1765.0,1752.0,1755.0,1765.0,1815.0,97.80718994140625,-16.319942474365234,-43.45001220703125,Left
2964.027099609375,294029,1,1772.0,1723.0,1765.0,1709.0,1755.0,1749.0,1751.0,1757.0,97.80718994140625,-16.319942474365234,-43.45001220703125,Left
2966.027099609375,294029,1,1773.0,1753.0,1735.0,1750.0,1763.0,1753.0,1759.0,1712.0,97.80718994140625,-16.319942474365234,-43.45001220703125,Left
2968.027099609375,294029,1,1785.0,1763.0,1745.0,1764.0,1752.0,1749.0,1765.0,1739.0,97.80718994140625,-16.319942474365234,-43.45001220703125,Left
2970.027099609375,294029,1,1774.0,1763.0,1772.0,1745.0,1751.0,1751.0,1750.0,1753.0,97.80718994140625,-16.319942474365234,-43.45001220703125,Left
2967.582275390625,294030,1,1775.0,1763.0,1753.0,1763.0,1751.0,1741.0,1763.0,1751.0,97.80718994140625,-16.319942474365234,-43.45001220703125,Left
2969.582275390625,294030,1,1765.0,1768.0,1761.0,1766.0,1752.0,1741.0,1767.0,1736.0,97.80718994140625,-16.319942474365234,-43.45001220703125,Left
2971.582275390625,294030,1,1747.0,1749.0,1751.0,1752.0,1741.0,1746.0,1752.0,1755.0,97.80718994140625,-16.319942474365234,-43.45001220703125,Left
2973.582275390625,294030,1,1720.0,1763.0,1755.0,1764.0,1751.0,1754.0,1761.0,1740.0,97.80718994140625,-16.319942474365234,-43.45001220703125,Left
2975.582275390625,294030,1,1724.0,1763.0,1749.0,1767.0,1756.0,1741.0,1759.0,1757.0,97.80718994140625,-16.319942474365234,-43.45001220703125,Left
2993.048095703125,294031,1,1742.0,1749.0,1754.0,1751.0,1751.0,1741.0,1752.0,1733.0,97.80718994140625,-16.319942474365234,-43.45001220703125,Left
2995.048095703125,294031,1,1767.0,1763.0,1742.0,1762.0,1757.0,1750.0,1764.0,1749.0,97.80718994140625,-16.319942474365234,-43.45001220703125,Left
2997.048095703125,294031,1,1773.0,1755.0,1733.0,1754.0,1755.0,1753.0,1764.0,1727.0,98.11616516113281,-16.473482131958008,-43.60285186767578,Left
2999.048095703125,294031,1,1786.0,1758.0,1775.0,1765.0,1751.0,1751.0,1763.0,1751.0,98.11616516113281,-16.473482131958008,-43.60285186767578,Left
3001.048095703125,294031,1,1775.0,1741.0,1765.0,1750.0,1753.0,1751.0,1761.0,1743.0,98.11616516113281,-16.473482131958008,-43.60285186767578,Left
2993.58544921875,294032,1,1765.0,1755.0,1721.0,1742.0,1742.0,1754.0,1765.0,1749.0,98.11616516113281,-16.473482131958008,-43.60285186767578,Left
2995.58544921875,294032,1,1767.0,1765.0,1785.0,1765.0,1755.0,1755.0,1763.0,1757.0,98.11616516113281,-16.473482131958008,-43.60285186767578,Left
2997.58544921875,294032,1,1746.0,1765.0,1816.0,1768.0,1753.0,1754.0,1765.0,1752.0,98.11616516113281,-16.473482131958008,-43.60285186767578,Left
2999.58544921875,294032,1,1719.0,1771.0,1775.0,1781.0,1752.0,1756.0,1767.0,1769.0,98.11616516113281,-16.473482131958008,-43.60285186767578,Left
3001.58544921875,294032,1,1733.0,1762.0,1737.0,1783.0,1755.0,1750.0,1764.0,1750.0,98.11616516113281,-16.473482131958008,-43.60285186767578,Left
3002.1103515625,294033,1,1746.0,1739.0,1709.0,1710.0,1754.0,1742.0,1765.0,1701.0,98.11616516113281,-16.473482131958008,-43.60285186767578,Left
3004.1103515625,294033,1,1769.0,1743.0,1676.0,1771.0,1753.0,1749.0,1757.0,1735.0,98.11616516113281,-16.473482131958008,-43.60285186767578,Left
3006.1103515625,294033,1,1781.0,1757.0,1849.0,1779.0,1753.0,1754.0,1763.0,1819.0,98.11616516113281,-16.473482131958008,-43.60285186767578,Left
3008.1103515625,294033,1,1783.0,1741.0,1831.0,1707.0,1745.0,1740.0,1759.0,1769.0,98.11616516113281,-16.473482131958008,-43.60285186767578,Left
3010.1103515625,294033,1,1783.0,1771.0,1764.0,1747.0,1753.0,1753.0,1750.0,1724.0,98.11616516113281,-16.473482131958008,-43.60285186767578,Left
3006.121337890625,294034,1,1769.0,1755.0,1706.0,1754.0,1752.0,1753.0,1763.0,1711.0,98.11616516113281,-16.473482131958008,-43.60285186767578,Left
3008.121337890625,294034,1,1769.0,1781.0,1750.0,1774.0,1736.0,1755.0,1759.0,1747.0,98.11616516113281,-16.473482131958008,-43.60285186767578,Left
3010.121337890625,294034,1,1738.0,1766.0,1758.0,1765.0,1749.0,1754.0,1755.0,1739.0,98.11616516113281,-16.473482131958008,-43.60285186767578,Left
3012.121337890625,294034,1,1719.0,1742.0,1759.0,1765.0,1752.0,1747.0,1751.0,1763.0,98.11616516113281,-16.473482131958008,-43.60285186767578,Left
3014.121337890625,294034,1,1724.0,1755.0,1735.0,1746.0,1749.0,1742.0,1763.0,1748.0,98.11616516113281,-16.473482131958008,-43.60285186767578,Left
3016.81201171875,294035,1,1742.0,1757.0,1717.0,1747.0,1755.0,1751.0,1751.0,1755.0,98.11616516113281,-16.473482131958008,-43.60285186767578,Left
3018.81201171875,294035,1,1769.0,1759.0,1779.0,1769.0,1753.0,1748.0,1757.0,1763.0,98.11616516113281,-16.473482131958008,-43.60285186767578,Left
3020.81201171875,294035,1,1778.0,1755.0,1781.0,1767.0,1752.0,1751.0,1752.0,1753.0,98.11616516113281,-16.473482131958008,-43.60285186767578,Left
3022.81201171875,294035,1,1783.0,1751.0,1743.0,1754.0,1752.0,1753.0,1758.0,1724.0,98.11616516113281,-16.473482131958008,-43.60285186767578,Left
3024.81201171875,294035,1,1783.0,1755.0,1773.0,1756.0,1743.0,1749.0,1763.0,1751.0,98.11616516113281,-16.473482131958008,-43.60285186767578,Left
3040.08447265625,294036,1,1772.0,1736.0,1759.0,1757.0,1752.0,1753.0,1763.0,1739.0,98.11616516113281,-16.473482131958008,-43.60285186767578,Left
3042.08447265625,294036,1,1769.0,1759.0,1755.0,1767.0,1749.0,1749.0,1759.0,1738.0,98.11616516113281,-16.473482131958008,-43.60285186767578,Left
3044.08447265625,294036,1,1749.0,1763.0,1753.0,1767.0,1755.0,1753.0,1763.0,1749.0,98.11616516113281,-16.473482131958008,-43.60285186767578,Left
3046.08447265625,294036,1,1721.0,1759.0,1757.0,1747.0,1755.0,1742.0,1765.0,1753.0,98.11616516113281,-16.473482131958008,-43.60285186767578,Left
3048.08447265625,294036,1,1728.0,1756.0,1749.0,1755.0,1755.0,1743.0,1765.0,1753.0,98.11616516113281,-16.473482131958008,-43.60285186767578,Left
3041.033203125,294037,1,1737.0,1752.0,1751.0,1756.0,1741.0,1741.0,1764.0,1752.0,98.11616516113281,-16.473482131958008,-43.60285186767578,Left
3043.033203125,294037,1,1768.0,1763.0,1767.0,1773.0,1752.0,1753.0,1751.0,1759.0,98.11616516113281,-16.473482131958008,-43.60285186767578,Left
3045.033203125,294037,1,1781.0,1758.0,1768.0,1767.0,1752.0,1749.0,1763.0,1748.0,98.11616516113281,-16.473482131958008,-43.60285186767578,Left
3047.033203125,294037,1,1774.0,1759.0,1770.0,1764.0,1749.0,1751.0,1763.0,1743.0,98.11616516113281,-16.473482131958008,-43.60285186767578,Left
3049.033203125,294037,1,1783.0,1751.0,1751.0,1747.0,1751.0,1751.0,1765.0,1720.0,98.11616516113281,-16.473482131958008,-43.60285186767578,Left
3049.36328125,294038,1,1770.0,1758.0,1727.0,1753.0,1749.0,1746.0,1763.0,1735.0,98.13125610351562,-16.57594871520996,-43.54166030883789,Left
3051.36328125,294038,1,1768.0,1752.0,1749.0,1753.0,1751.0,1752.0,1764.0,1736.0,98.13125610351562,-16.57594871520996,-43.54166030883789,Left
3053.36328125,294038,1,1747.0,1773.0,1764.0,1773.0,1753.0,1742.0,1767.0,1737.0,98.13125610351562,-16.57594871520996,-43.54166030883789,Left
3055.36328125,294038,1,1735.0,1747.0,1768.0,1767.0,1753.0,1756.0,1763.0,1767.0,98.13125610351562,-16.57594871520996,-43.54166030883789,Left
3057.36328125,294038,1,1719.0,1753.0,1771.0,1755.0,1753.0,1753.0,1765.0,1763.0,98.13125610351562,-16.57594871520996,-43.54166030883789,Left
3057.259033203125,294039,1,1749.0,1759.0,1718.0,1783.0,1755.0,1749.0,1763.0,1766.0,98.13125610351562,-16.57594871520996,-43.54166030883789,Left
3059.259033203125,294039,1,1772.0,1754.0,1803.0,1771.0,1753.0,1752.0,1764.0,1789.0,98.13125610351562,-16.57594871520996,-43.54166030883789,Left
3061.259033203125,294039,1,1779.0,1725.0,1869.0,1705.0,1753.0,1751.0,1765.0,1775.0,98.13125610351562,-16.57594871520996,-43.54166030883789,Left
3063.259033203125,294039,1,1788.0,1739.0,1749.0,1753.0,1746.0,1740.0,1763.0,1709.0,98.13125610351562,-16.57594871520996,-43.54166030883789,Left
3065.259033203125,294039,1,1787.0,1749.0,1701.0,1753.0,1741.0,1752.0,1756.0,1720.0,98.13125610351562,-16.57594871520996,-43.54166030883789,Left
3069.112060546875,294040,1,1781.0,1756.0,1706.0,1753.0,1742.0,1755.0,1758.0,1721.0,98.13125610351562,-16.57594871520996,-43.54166030883789,Left
3071.112060546875,294040,1,1762.0,1763.0,1751.0,1753.0,1755.0,1749.0,1764.0,1739.0,98.13125610351562,-16.57594871520996,-43.54166030883789,Left
3073.112060546875,294040,1,1752.0,1751.0,1737.0,1745.0,1750.0,1753.0,1767.0,1747.0,98.13125610351562,-16.57594871520996,-43.54166030883789,Left
3075.112060546875,294040,1,1736.0,1765.0,1735.0,1751.0,1741.0,1741.0,1766.0,1746.0,98.13125610351562,-16.57594871520996,-43.54166030883789,Left
3077.112060546875,294040,1,1727.0,1767.0,1737.0,1785.0,1753.0,1750.0,1755.0,1759.0,98.13125610351562,-16.57594871520996,-43.54166030883789,Left
3081.236328125,294041,1,1748.0,1753.0,1775.0,1766.0,1753.0,1752.0,1763.0,1763.0,98.13125610351562,-16.57594871520996,-43.54166030883789,Left
3083.236328125,294041,1,1769.0,1755.0,1753.0,1747.0,1751.0,1727.0,1759.0,1737.0,98.13125610351562,-16.57594871520996,-43.54166030883789,Left
3085.236328125,294041,1,1775.0,1763.0,1758.0,1775.0,1752.0,1740.0,1764.0,1739.0,98.13125610351562,-16.57594871520996,-43.54166030883789,Left
3087.236328125,294041,1,1785.0,1761.0,1788.0,1748.0,1755.0,1750.0,1752.0,1787.0,98.13125610351562,-16.57594871520996,-43.54166030883789,Left
3089.236328125,294041,1,1775.0,1751.0,1767.0,1780.0,1724.0,1753.0,1751.0,1755.0,98.13125610351562,-16.57594871520996,-43.54166030883789,Left
3095.38232421875,294042,1,1775.0,1748.0,1738.0,1755.0,1743.0,1749.0,1765.0,1727.0,98.13125610351562,-16.57594871520996,-43.54166030883789,Left
3097.38232421875,294042,1,1769.0,1775.0,1765.0,1754.0,1743.0,1756.0,1764.0,1737.0,98.13125610351562,-16.57594871520996,-43.54166030883789,Left
3099.38232421875,294042,1,1752.0,1754.0,1751.0,1741.0,1723.0,1752.0,1757.0,1740.0,98.13125610351562,-16.57594871520996,-43.54166030883789,Left
3101.38232421875,294042,1,1725.0,1762.0,1747.0,1765.0,1754.0,1756.0,1765.0,1745.0,98.13125610351562,-16.57594871520996,-43.54166030883789,Left
3103.38232421875,294042,1,1721.0,1761.0,1755.0,1771.0,1752.0,1753.0,1754.0,1751.0,98.13125610351562,-16.57594871520996,-43.54166030883789,Left
3108.537109375,294043,1,1737.0,1753.0,1743.0,1759.0,1751.0,1752.0,1761.0,1752.0,98.13125610351562,-16.57594871520996,-43.54166030883789,Left
3110.537109375,294043,1,1763.0,1771.0,1752.0,1767.0,1752.0,1748.0,1758.0,1751.0,98.13125610351562,-16.57594871520996,-43.54166030883789,Left
3112.537109375,294043,1,1768.0,1763.0,1753.0,1759.0,1742.0,1752.0,1763.0,1746.0,98.13125610351562,-16.57594871520996,-43.54166030883789,Left
3114.537109375,294043,1,1773.0,1747.0,1781.0,1764.0,1751.0,1742.0,1764.0,1770.0,98.13125610351562,-16.57594871520996,-43.54166030883789,Left
3116.537109375,294043,1,1782.0,1751.0,1763.0,1751.0,1771.0,1748.0,1750.0,1779.0,98.13125610351562,-16.57594871520996,-43.54166030883789,Left
3111.730224609375,294044,1,1774.0,1758.0,1755.0,1753.0,1749.0,1751.0,1758.0,1717.0,98.13125610351562,-16.57594871520996,-43.54166030883789,Left
3113.730224609375,294044,1,1767.0,1743.0,1749.0,1751.0,1755.0,1755.0,1753.0,1725.0,98.13125610351562,-16.57594871520996,-43.54166030883789,Left
3115.730224609375,294044,1,1749.0,1759.0,1767.0,1771.0,1755.0,1754.0,1767.0,1739.0,98.37903594970703,-16.55442237854004,-43.62636947631836,Left
3117.730224609375,294044,1,1735.0,1750.0,1735.0,1751.0,1751.0,1756.0,1755.0,1740.0,98.37903594970703,-16.55442237854004,-43.62636947631836,Left
3119.730224609375,294044,1,1726.0,1765.0,1715.0,1749.0,1753.0,1751.0,1763.0,1755.0,98.37903594970703,-16.55442237854004,-43.62636947631836,Left
3119.283203125,294045,1,1741.0,1761.0,1803.0,1771.0,1741.0,1743.0,1753.0,1765.0,98.37903594970703,-16.55442237854004,-43.62636947631836,Left
3121.283203125,294045,1,1769.0,1747.0,1791.0,1781.0,1751.0,1754.0,1757.0,1751.0,98.37903594970703,-16.55442237854004,-43.62636947631836,Left
3123.283203125,294045,1,1784.0,1764.0,1752.0,1759.0,1748.0,1748.0,1750.0,1735.0,98.37903594970703,-16.55442237854004,-43.62636947631836,Left
3125.283203125,294045,1,1783.0,1757.0,1748.0,1762.0,1755.0,1751.0,1763.0,1738.0,98.37903594970703,-16.55442237854004,-43.62636947631836,Left
3127.283203125,294045,1,1787.0,1763.0,1721.0,1755.0,1756.0,1749.0,1763.0,1715.0,98.37903594970703,-16.55442237854004,-43.62636947631836,Left
3133.9462890625,294046,1,1775.0,1758.0,1723.0,1751.0,1752.0,1750.0,1736.0,1719.0,98.37903594970703,-16.55442237854004,-43.62636947631836,Left
3135.9462890625,294046,1,1740.0,1758.0,1751.0,1747.0,1755.0,1752.0,1754.0,1723.0,98.37903594970703,-16.55442237854004,-43.62636947631836,Left
3137.9462890625,294046,1,1749.0,1765.0,1799.0,1746.0,1756.0,1743.0,1753.0,1755.0,98.37903594970703,-16.55442237854004,-43.62636947631836,Left
3139.9462890625,294046,1,1723.0,1757.0,1768.0,1784.0,1754.0,1755.0,1761.0,1747.0,98.37903594970703,-16.55442237854004,-43.62636947631836,Left
3141.9462890625,294046,1,1721.0,1763.0,1775.0,1764.0,1741.0,1753.0,1765.0,1769.0,98.37903594970703,-16.55442237854004,-43.62636947631836,Left
3139.1171875,294047,1,1747.0,1755.0,1763.0,1751.0,1753.0,1753.0,1757.0,1757.0,98.37903594970703,-16.55442237854004,-43.62636947631836,Left
3141.1171875,294047,1,1770.0,1741.0,1701.0,1743.0,1753.0,1750.0,1756.0,1749.0,98.37903594970703,-16.55442237854004,-43.62636947631836,Left
3143.1171875,294047,1,1783.0,1763.0,1771.0,1755.0,1755.0,1751.0,1763.0,1741.0,98.37903594970703,-16.55442237854004,-43.62636947631836,Left
3145.1171875,294047,1,1783.0,1769.0,1767.0,1761.0,1742.0,1745.0,1757.0,1759.0,98.37903594970703,-16.55442237854004,-43.62636947631836,Left
3147.1171875,294047,1,1779.0,1749.0,1768.0,1751.0,1743.0,1753.0,1763.0,1733.0,98.37903594970703,-16.55442237854004,-43.62636947631836,Left
3147.999267578125,294048,1,1775.0,1757.0,1719.0,1749.0,1750.0,1740.0,1753.0,1724.0,98.37903594970703,-16.55442237854004,-43.62636947631836,Left
3149.999267578125,294048,1,1771.0,1753.0,1752.0,1763.0,1753.0,1753.0,1759.0,1738.0,98.37903594970703,-16.55442237854004,-43.62636947631836,Left
3151.999267578125,294048,1,1743.0,1743.0,1771.0,1753.0,1753.0,1751.0,1753.0,1767.0,98.37903594970703,-16.55442237854004,-43.62636947631836,Left
3153.999267578125,294048,1,1737.0,1751.0,1755.0,1754.0,1755.0,1754.0,1755.0,1757.0,98.37903594970703,-16.55442237854004,-43.62636947631836,Left
3155.999267578125,294048,1,1735.0,1759.0,1743.0,1750.0,1743.0,1755.0,1752.0,1763.0,98.37903594970703,-16.55442237854004,-43.62636947631836,Left
3165.71728515625,294049,1,1741.0,1766.0,1779.0,1775.0,1754.0,1753.0,1763.0,1781.0,98.37903594970703,-16.55442237854004,-43.62636947631836,Left
3167.71728515625,294049,1,1772.0,1757.0,1748.0,1769.0,1752.0,1752.0,1763.0,1751.0,98.37903594970703,-16.55442237854004,-43.62636947631836,Left
3169.71728515625,294049,1,1787.0,1771.0,1752.0,1741.0,1753.0,1752.0,1759.0,1747.0,98.37903594970703,-16.55442237854004,-43.62636947631836,Left
3171.71728515625,294049,1,1788.0,1765.0,1799.0,1784.0,1753.0,1753.0,1758.0,1735.0,98.37903594970703,-16.55442237854004,-43.62636947631836,Left
3173.71728515625,294049,1,1779.0,1754.0,1753.0,1755.0,1755.0,1751.0,1763.0,1727.0,98.37903594970703,-16.55442237854004,-43.62636947631836,Left
3166.931396484375,294050,1,1780.0,1743.0,1717.0,1723.0,1754.0,1749.0,1759.0,1723.0,98.37903594970703,-16.55442237854004,-43.62636947631836,Left
3168.931396484375,294050,1,1768.0,1752.0,1779.0,1763.0,1755.0,1749.0,1761.0,1771.0,98.37903594970703,-16.55442237854004,-43.62636947631836,Left
3170.931396484375,294050,1,1750.0,1759.0,1784.0,1775.0,1742.0,1755.0,1762.0,1758.0,98.37903594970703,-16.55442237854004,-43.62636947631836,Left
3172.931396484375,294050,1,1721.0,1765.0,1749.0,1739.0,1743.0,1753.0,1763.0,1734.0,98.37903594970703,-16.55442237854004,-43.62636947631836,Left
3174.931396484375,294050,1,1727.0,1756.0,1733.0,1754.0,1749.0,1747.0,1759.0,1755.0,98.73821258544922,-16.60111427307129,-43.78737258911133,Left
3186.580322265625,294051,1,1742.0,1747.0,1739.0,1753.0,1751.0,1753.0,1751.0,1757.0,98.73821258544922,-16.60111427307129,-43.78737258911133,Left
3188.580322265625,294051,1,1767.0,1756.0,1751.0,1759.0,1751.0,1753.0,1758.0,1749.0,98.73821258544922,-16.60111427307129,-43.78737258911133,Left
3190.580322265625,294051,1,1788.0,1756.0,1754.0,1747.0,1752.0,1741.0,1761.0,1739.0,98.73821258544922,-16.60111427307129,-43.78737258911133,Left
3192.580322265625,294051,1,1786.0,1752.0,1772.0,1757.0,1753.0,1749.0,1762.0,1741.0,98.73821258544922,-16.60111427307129,-43.78737258911133,Left
3194.580322265625,294051,1,1787.0,1755.0,1759.0,1764.0,1755.0,1749.0,1762.0,1749.0,98.73821258544922,-16.60111427307129,-43.78737258911133,Left
3195.611328125,294052,1,1781.0,1769.0,1733.0,1752.0,1749.0,1751.0,1765.0,1743.0,98.73821258544922,-16.60111427307129,-43.78737258911133,Left
3197.611328125,294052,1,1770.0,1757.0,1763.0,1766.0,1741.0,1753.0,1759.0,1735.0,98.73821258544922,-16.60111427307129,-43.78737258911133,Left
3199.611328125,294052,1,1755.0,1769.0,1783.0,1772.0,1754.0,1753.0,1765.0,1754.0,98.73821258544922,-16.60111427307129,-43.78737258911133,Left
3201.611328125,294052,1,1734.0,1757.0,1711.0,1759.0,1742.0,1755.0,1761.0,1743.0,98.73821258544922,-16.60111427307129,-43.78737258911133,Left
3203.611328125,294052,1,1735.0,1756.0,1739.0,1767.0,1763.0,1741.0,1752.0,1741.0,98.73821258544922,-16.60111427307129,-43.78737258911133,Left
3207.087158203125,294053,1,1747.0,1757.0,1740.0,1761.0,1753.0,1751.0,1752.0,1762.0,98.73821258544922,-16.60111427307129,-43.78737258911133,Left
3209.087158203125,294053,1,1767.0,1752.0,1738.0,1756.0,1743.0,1740.0,1757.0,1755.0,98.73821258544922,-16.60111427307129,-43.78737258911133,Left
3211.087158203125,294053,1,1773.0,1726.0,1773.0,1739.0,1755.0,1739.0,1757.0,1763.0,98.73821258544922,-16.60111427307129,-43.78737258911133,Left
3213.087158203125,294053,1,1779.0,1759.0,1799.0,1784.0,1755.0,1740.0,1765.0,1752.0,98.73821258544922,-16.60111427307129,-43.78737258911133,Left
3215.087158203125,294053,1,1781.0,1754.0,1775.0,1736.0,1755.0,1751.0,1758.0,1742.0,98.73821258544922,-16.60111427307129,-43.78737258911133,Left
3207.998291015625,294054,1,1781.0,1749.0,1739.0,1748.0,1753.0,1755.0,1765.0,1717.0,98.73821258544922,-16.60111427307129,-43.78737258911133,Left
3209.998291015625,294054,1,1772.0,1763.0,1753.0,1763.0,1719.0,1755.0,1763.0,1724.0,98.73821258544922,-16.60111427307129,-43.78737258911133,Left
3211.998291015625,294054,1,1751.0,1763.0,1771.0,1757.0,1751.0,1755.0,1763.0,1753.0,98.73821258544922,-16.60111427307129,-43.78737258911133,Left
3213.998291015625,294054,1,1733.0,1739.0,1781.0,1759.0,1751.0,1751.0,1765.0,1763.0,98.73821258544922,-16.60111427307129,-43.78737258911133,Left
3215.998291015625,294054,1,1737.0,1755.0,1797.0,1764.0,1757.0,1752.0,1743.0,1756.0,98.73821258544922,-16.60111427307129,-43.78737258911133,Left
3217.343994140625,294055,1,1750.0,1757.0,1702.0,1749.0,1763.0,1750.0,1768.0,1753.0,98.73821258544922,-16.60111427307129,-43.78737258911133,Left
3219.343994140625,294055,1,1761.0,1747.0,1737.0,1737.0,1755.0,1741.0,1762.0,1768.0,98.73821258544922,-16.60111427307129,-43.78737258911133,Left
3221.343994140625,294055,1,1785.0,1771.0,1747.0,1783.0,1752.0,1755.0,1752.0,1737.0,98.73821258544922,-16.60111427307129,-43.78737258911133,Left
3223.343994140625,294055,1,1779.0,1757.0,1774.0,1763.0,1747.0,1748.0,1757.0,1739.0,98.73821258544922,-16.60111427307129,-43.78737258911133,Left
3225.343994140625,294055,1,1788.0,1757.0,1759.0,1767.0,1739.0,1749.0,1763.0,1737.0,98.73821258544922,-16.60111427307129,-43.78737258911133,Left
3228.80419921875,294056,1,1781.0,1757.0,1747.0,1753.0,1749.0,1735.0,1763.0,1722.0,98.73821258544922,-16.60111427307129,-43.78737258911133,Left
3230.80419921875,294056,1,1769.0,1758.0,1762.0,1763.0,1752.0,1750.0,1763.0,1735.0,98.73821258544922,-16.60111427307129,-43.78737258911133,Left
3232.80419921875,294056,1,1743.0,1757.0,1767.0,1768.0,1755.0,1741.0,1766.0,1752.0,98.73821258544922,-16.60111427307129,-43.78737258911133,Left
3234.80419921875,294056,1,1733.0,1756.0,1737.0,1752.0,1753.0,1743.0,1755.0,1757.0,98.73821258544922,-16.60111427307129,-43.78737258911133,Left
3236.80419921875,294056,1,1736.0,1763.0,1762.0,1757.0,1751.0,1753.0,1759.0,1769.0,98.73821258544922,-16.60111427307129,-43.78737258911133,Left
3240.326171875,294057,1,1745.0,1757.0,1772.0,1751.0,1755.0,1749.0,1761.0,1774.0,98.73821258544922,-16.60111427307129,-43.78737258911133,Left
3242.326171875,294057,1,1764.0,1753.0,1723.0,1749.0,1755.0,1741.0,1758.0,1768.0,98.73821258544922,-16.60111427307129,-43.78737258911133,Left
3244.326171875,294057,1,1779.0,1768.0,1740.0,1779.0,1749.0,1751.0,1763.0,1723.0,98.7514877319336,-16.756587982177734,-43.896217346191406,Left
3246.326171875,294057,1,1789.0,1755.0,1766.0,1765.0,1755.0,1748.0,1762.0,1725.0,98.7514877319336,-16.756587982177734,-43.896217346191406,Left
3248.326171875,294057,1,1779.0,1746.0,1717.0,1707.0,1753.0,1753.0,1753.0,1712.0,98.7514877319336,-16.756587982177734,-43.896217346191406,Left
3251.687255859375,294058,1,1781.0,1758.0,1781.0,1768.0,1753.0,1753.0,1765.0,1759.0,98.7514877319336,-16.756587982177734,-43.896217346191406,Left
3253.687255859375,294058,1,1767.0,1753.0,1817.0,1766.0,1757.0,1749.0,1765.0,1755.0,98.7514877319336,-16.756587982177734,-43.896217346191406,Left
3255.687255859375,294058,1,1751.0,1756.0,1740.0,1756.0,1754.0,1754.0,1765.0,1723.0,98.7514877319336,-16.756587982177734,-43.896217346191406,Left
3257.687255859375,294058,1,1723.0,1771.0,1749.0,1755.0,1743.0,1755.0,1768.0,1765.0,98.7514877319336,-16.756587982177734,-43.896217346191406,Left
3259.687255859375,294058,1,1725.0,1762.0,1785.0,1765.0,1739.0,1751.0,1767.0,1769.0,98.7514877319336,-16.756587982177734,-43.896217346191406,Left
3274.539306640625,294059,1,1749.0,1751.0,1720.0,1735.0,1751.0,1749.0,1740.0,1738.0,98.7514877319336,-16.756587982177734,-43.896217346191406,Left
3276.539306640625,294059,1,1769.0,1757.0,1708.0,1753.0,1750.0,1753.0,1759.0,1728.0,98.7514877319336,-16.756587982177734,-43.896217346191406,Left
3278.539306640625,294059,1,1781.0,1741.0,1779.0,1739.0,1751.0,1751.0,1763.0,1767.0,98.7514877319336,-16.756587982177734,-43.896217346191406,Left
3280.539306640625,294059,1,1788.0,1763.0,1807.0,1767.0,1753.0,1755.0,1759.0,1747.0,98.7514877319336,-16.756587982177734,-43.896217346191406,Left
3282.539306640625,294059,1,1779.0,1764.0,1756.0,1767.0,1749.0,1749.0,1765.0,1711.0,98.7514877319336,-16.756587982177734,-43.896217346191406,Left
3275.132080078125,294060,1,1770.0,1757.0,1694.0,1746.0,1723.0,1762.0,1762.0,1721.0,98.7514877319336,-16.756587982177734,-43.896217346191406,Left
3277.132080078125,294060,1,1769.0,1756.0,1767.0,1753.0,1756.0,1756.0,1761.0,1743.0,98.7514877319336,-16.756587982177734,-43.896217346191406,Left
3279.132080078125,294060,1,1749.0,1741.0,1759.0,1747.0,1742.0,1753.0,1767.0,1757.0,98.7514877319336,-16.756587982177734,-43.896217346191406,Left
3281.132080078125,294060,1,1735.0,1763.0,1761.0,1759.0,1742.0,1753.0,1765.0,1755.0,98.7514877319336,-16.756587982177734,-43.896217346191406,Left
3283.132080078125,294060,1,1733.0,1772.0,1757.0,1773.0,1754.0,1755.0,1765.0,1751.0,98.7514877319336,-16.756587982177734,-43.896217346191406,Left
3284.850341796875,294061,1,1749.0,1747.0,1762.0,1757.0,1742.0,1743.0,1763.0,1770.0,98.7514877319336,-16.756587982177734,-43.896217346191406,Left
3286.850341796875,294061,1,1767.0,1755.0,1754.0,1779.0,1753.0,1752.0,1751.0,1758.0,98.7514877319336,-16.756587982177734,-43.896217346191406,Left
3288.850341796875,294061,1,1783.0,1763.0,1748.0,1749.0,1751.0,1752.0,1758.0,1733.0,98.7514877319336,-16.756587982177734,-43.896217346191406,Left
3290.850341796875,294061,1,1785.0,1763.0,1751.0,1751.0,1754.0,1752.0,1763.0,1727.0,98.7514877319336,-16.756587982177734,-43.896217346191406,Left
3292.850341796875,294061,1,1787.0,1759.0,1787.0,1769.0,1753.0,1748.0,1765.0,1751.0,98.7514877319336,-16.756587982177734,-43.896217346191406,Left
3298.75146484375,294062,1,1771.0,1741.0,1781.0,1735.0,1753.0,1751.0,1747.0,1739.0,98.7514877319336,-16.756587982177734,-43.896217346191406,Left
3300.75146484375,294062,1,1765.0,1753.0,1757.0,1751.0,1753.0,1740.0,1763.0,1757.0,98.7514877319336,-16.756587982177734,-43.896217346191406,Left
3302.75146484375,294062,1,1741.0,1737.0,1743.0,1767.0,1751.0,1745.0,1767.0,1715.0,98.7514877319336,-16.756587982177734,-43.896217346191406,Left
3304.75146484375,294062,1,1721.0,1771.0,1737.0,1772.0,1755.0,1755.0,1762.0,1767.0,98.7514877319336,-16.756587982177734,-43.896217346191406,Left
3306.75146484375,294062,1,1733.0,1765.0,1775.0,1757.0,1755.0,1743.0,1765.0,1758.0,98.7514877319336,-16.756587982177734,-43.896217346191406,Left
3299.588134765625,294063,1,1742.0,1763.0,1725.0,1763.0,1753.0,1743.0,1763.0,1756.0,98.7514877319336,-16.756587982177734,-43.896217346191406,Left
3301.588134765625,294063,1,1768.0,1751.0,1722.0,1757.0,1763.0,1752.0,1762.0,1735.0,98.7514877319336,-16.756587982177734,-43.896217346191406,Left
3303.588134765625,294063,1,1780.0,1749.0,1787.0,1758.0,1751.0,1754.0,1761.0,1765.0,98.7514877319336,-16.756587982177734,-43.896217346191406,Left
3305.588134765625,294063,1,1787.0,1765.0,1759.0,1757.0,1755.0,1751.0,1750.0,1723.0,98.7514877319336,-16.756587982177734,-43.896217346191406,Left
3307.588134765625,294063,1,1781.0,1758.0,1757.0,1757.0,1752.0,1751.0,1751.0,1710.0,99.0609359741211,-16.945600509643555,-44.105953216552734,Left
3312.004150390625,294064,1,1768.0,1743.0,1712.0,1741.0,1755.0,1752.0,1762.0,1726.0,99.0609359741211,-16.945600509643555,-44.105953216552734,Left
3314.004150390625,294064,1,1751.0,1768.0,1782.0,1755.0,1741.0,1751.0,1765.0,1751.0,99.0609359741211,-16.945600509643555,-44.105953216552734,Left
3316.004150390625,294064,1,1749.0,1764.0,1801.0,1769.0,1753.0,1749.0,1765.0,1773.0,99.0609359741211,-16.945600509643555,-44.105953216552734,Left
3318.004150390625,294064,1,1735.0,1753.0,1757.0,1756.0,1751.0,1756.0,1763.0,1799.0,99.0609359741211,-16.945600509643555,-44.105953216552734,Left
3320.004150390625,294064,1,1733.0,1746.0,1753.0,1745.0,1757.0,1757.0,1753.0,1763.0,99.0609359741211,-16.945600509643555,-44.105953216552734,Left
3318.59619140625,294065,1,1733.0,1737.0,1736.0,1749.0,1753.0,1750.0,1759.0,1751.0,99.0609359741211,-16.945600509643555,-44.105953216552734,Left
3320.59619140625,294065,1,1765.0,1759.0,1743.0,1756.0,1758.0,1741.0,1749.0,1741.0,99.0609359741211,-16.945600509643555,-44.105953216552734,Left
3322.59619140625,294065,1,1781.0,1755.0,1775.0,1766.0,1753.0,1755.0,1757.0,1747.0,99.0609359741211,-16.945600509643555,-44.105953216552734,Left
3324.59619140625,294065,1,1781.0,1755.0,1759.0,1739.0,1755.0,1752.0,1759.0,1753.0,99.0609359741211,-16.945600509643555,-44.105953216552734,Left
3326.59619140625,294065,1,1775.0,1765.0,1766.0,1787.0,1741.0,1755.0,1763.0,1737.0,99.0609359741211,-16.945600509643555,-44.105953216552734,Left
3328.165283203125,294066,1,1774.0,1717.0,1757.0,1786.0,1755.0,1749.0,1764.0,1749.0,99.0609359741211,-16.945600509643555,-44.105953216552734,Left
3330.165283203125,294066,1,1763.0,1763.0,1747.0,1797.0,1751.0,1741.0,1763.0,1742.0,99.0609359741211,-16.945600509643555,-44.105953216552734,Left
3332.165283203125,294066,1,1753.0,1761.0,1737.0,1748.0,1743.0,1756.0,1764.0,1742.0,99.0609359741211,-16.945600509643555,-44.105953216552734,Left
3334.165283203125,294066,1,1739.0,1765.0,1741.0,1740.0,1745.0,1751.0,1759.0,1751.0,99.0609359741211,-16.945600509643555,-44.105953216552734,Left
3336.165283203125,294066,1,1727.0,1764.0,1747.0,1767.0,1751.0,1753.0,1765.0,1757.0,99.0609359741211,-16.945600509643555,-44.105953216552734,Left
3347.486328125,294067,1,1743.0,1747.0,1747.0,1739.0,1755.0,1752.0,1755.0,1757.0,99.0609359741211,-16.945600509643555,-44.105953216552734,Left
3349.486328125,294067,1,1767.0,1757.0,1741.0,1759.0,1752.0,1749.0,1755.0,1771.0,99.0609359741211,-16.945600509643555,-44.105953216552734,Left
3351.486328125,294067,1,1773.0,1751.0,1799.0,1747.0,1753.0,1740.0,1752.0,1747.0,99.0609359741211,-16.945600509643555,-44.105953216552734,Left
3353.486328125,294067,1,1776.0,1767.0,1788.0,1763.0,1742.0,1752.0,1763.0,1749.0,99.0609359741211,-16.945600509643555,-44.105953216552734,Left
3355.486328125,294067,1,1785.0,1755.0,1746.0,1767.0,1755.0,1751.0,1762.0,1719.0,99.0609359741211,-16.945600509643555,-44.105953216552734,Left
3352.529296875,294068,1,1773.0,1753.0,1727.0,1750.0,1755.0,1755.0,1763.0,1719.0,99.0609359741211,-16.945600509643555,-44.105953216552734,Left
3354.529296875,294068,1,1769.0,1757.0,1711.0,1756.0,1752.0,1752.0,1758.0,1720.0,99.0609359741211,-16.945600509643555,-44.105953216552734,Left
3356.529296875,294068,1,1753.0,1747.0,1759.0,1753.0,1753.0,1753.0,1763.0,1749.0,99.0609359741211,-16.945600509643555,-44.105953216552734,Left
3358.529296875,294068,1,1737.0,1764.0,1791.0,1765.0,1751.0,1755.0,1753.0,1789.0,99.0609359741211,-16.945600509643555,-44.105953216552734,Left
3360.529296875,294068,1,1733.0,1747.0,1814.0,1764.0,1745.0,1755.0,1767.0,1787.0,99.0609359741211,-16.945600509643555,-44.105953216552734,Left
3374.78125,294069,1,1743.0,1757.0,1723.0,1759.0,1749.0,1749.0,1765.0,1752.0,99.0609359741211,-16.945600509643555,-44.105953216552734,Left
3376.78125,294069,1,1769.0,1748.0,1707.0,1747.0,1739.0,1752.0,1762.0,1745.0,99.0609359741211,-16.945600509643555,-44.105953216552734,Left
3378.78125,294069,1,1781.0,1753.0,1762.0,1758.0,1757.0,1743.0,1765.0,1735.0,99.0609359741211,-16.945600509643555,-44.105953216552734,Left
3380.78125,294069,1,1789.0,1751.0,1747.0,1755.0,1755.0,1749.0,1759.0,1733.0,99.0609359741211,-16.945600509643555,-44.105953216552734,Left
3382.78125,294069,1,1785.0,1772.0,1751.0,1751.0,1751.0,1754.0,1751.0,1739.0,99.0609359741211,-16.945600509643555,-44.105953216552734,Left
3377.6982421875,294070,1,1782.0,1748.0,1721.0,1739.0,1741.0,1749.0,1767.0,1724.0,99.0609359741211,-16.945600509643555,-44.105953216552734,Left
3379.6982421875,294070,1,1769.0,1768.0,1774.0,1769.0,1749.0,1752.0,1763.0,1754.0,99.0609359741211,-16.945600509643555,-44.105953216552734,Left
3381.6982421875,294070,1,1754.0,1743.0,1753.0,1753.0,1757.0,1752.0,1765.0,1757.0,99.26425170898438,-17.10280990600586,-44.24229431152344,Left
3383.6982421875,294070,1,1737.0,1765.0,1780.0,1768.0,1743.0,1754.0,1765.0,1758.0,99.26425170898438,-17.10280990600586,-44.24229431152344,Left
3385.6982421875,294070,1,1720.0,1763.0,1783.0,1767.0,1755.0,1753.0,1763.0,1767.0,99.26425170898438,-17.10280990600586,-44.24229431152344,Left
3378.412353515625,294071,1,1737.0,1747.0,1755.0,1749.0,1743.0,1753.0,1763.0,1751.0,99.26425170898438,-17.10280990600586,-44.24229431152344,Left
3380.412353515625,294071,1,1767.0,1757.0,1737.0,1751.0,1755.0,1749.0,1759.0,1740.0,99.26425170898438,-17.10280990600586,-44.24229431152344,Left
3382.412353515625,294071,1,1775.0,1757.0,1757.0,1751.0,1755.0,1751.0,1763.0,1726.0,99.26425170898438,-17.10280990600586,-44.24229431152344,Left
3384.412353515625,294071,1,1789.0,1748.0,1751.0,1759.0,1755.0,1751.0,1759.0,1751.0,99.26425170898438,-17.10280990600586,-44.24229431152344,Left
3386.412353515625,294071,1,1787.0,1757.0,1779.0,1765.0,1751.0,1749.0,1757.0,1764.0,99.26425170898438,-17.10280990600586,-44.24229431152344,Left
3404.427001953125,294072,1,1755.0,1757.0,1735.0,1758.0,1753.0,1755.0,1765.0,1736.0,99.26425170898438,-17.10280990600586,-44.24229431152344,Left
3406.427001953125,294072,1,1768.0,1763.0,1775.0,1767.0,1747.0,1754.0,1763.0,1747.0,99.26425170898438,-17.10280990600586,-44.24229431152344,Left
3408.427001953125,294072,1,1741.0,1765.0,1749.0,1751.0,1743.0,1753.0,1757.0,1743.0,99.26425170898438,-17.10280990600586,-44.24229431152344,Left
3410.427001953125,294072,1,1734.0,1762.0,1757.0,1759.0,1755.0,1753.0,1767.0,1747.0,99.26425170898438,-17.10280990600586,-44.24229431152344,Left
3412.427001953125,294072,1,1724.0,1767.0,1743.0,1775.0,1752.0,1753.0,1753.0,1747.0,99.26425170898438,-17.10280990600586,-44.24229431152344,Left
3405.3623046875,294073,1,1739.0,1757.0,1753.0,1763.0,1752.0,1751.0,1763.0,1787.0,99.26425170898438,-17.10280990600586,-44.24229431152344,Left
3407.3623046875,294073,1,1763.0,1759.0,1757.0,1755.0,1751.0,1749.0,1757.0,1757.0,99.26425170898438,-17.10280990600586,-44.24229431152344,Left
3409.3623046875,294073,1,1781.0,1746.0,1797.0,1769.0,1745.0,1739.0,1763.0,1774.0,99.26425170898438,-17.10280990600586,-44.24229431152344,Left
3411.3623046875,294073,1,1783.0,1753.0,1753.0,1759.0,1742.0,1743.0,1761.0,1727.0,99.26425170898438,-17.10280990600586,-44.24229431152344,Left
3413.3623046875,294073,1,1778.0,1762.0,1773.0,1747.0,1753.0,1751.0,1756.0,1745.0,99.26425170898438,-17.10280990600586,-44.24229431152344,Left
3415.14013671875,294074,1,1781.0,1763.0,1755.0,1759.0,1746.0,1755.0,1763.0,1747.0,99.26425170898438,-17.10280990600586,-44.24229431152344,Left
3417.14013671875,294074,1,1772.0,1746.0,1733.0,1751.0,1753.0,1751.0,1763.0,1704.0,99.26425170898438,-17.10280990600586,-44.24229431152344,Left
3419.14013671875,294074,1,1751.0,1739.0,1789.0,1764.0,1750.0,1750.0,1762.0,1754.0,99.26425170898438,-17.10280990600586,-44.24229431152344,Left
3421.14013671875,294074,1,1737.0,1769.0,1755.0,1773.0,1753.0,1745.0,1765.0,1759.0,99.26425170898438,-17.10280990600586,-44.24229431152344,Left
3423.14013671875,294074,1,1718.0,1767.0,1751.0,1767.0,1751.0,1745.0,1759.0,1767.0,99.26425170898438,-17.10280990600586,-44.24229431152344,Left
3418.79345703125,294075,1,1735.0,1751.0,1741.0,1755.0,1741.0,1753.0,1765.0,1767.0,99.26425170898438,-17.10280990600586,-44.24229431152344,Left
3420.79345703125,294075,1,1769.0,1765.0,1769.0,1779.0,1752.0,1750.0,1763.0,1749.0,99.26425170898438,-17.10280990600586,-44.24229431152344,Left
3422.79345703125,294075,1,1782.0,1767.0,1735.0,1764.0,1751.0,1751.0,1762.0,1705.0,99.26425170898438,-17.10280990600586,-44.24229431152344,Left
3424.79345703125,294075,1,1785.0,1747.0,1736.0,1741.0,1751.0,1749.0,1756.0,1723.0,99.26425170898438,-17.10280990600586,-44.24229431152344,Left
3426.79345703125,294075,1,1779.0,1753.0,1767.0,1752.0,1743.0,1751.0,1756.0,1742.0,99.26425170898438,-17.10280990600586,-44.24229431152344,Left
3429.654052734375,294076,1,1781.0,1756.0,1765.0,1769.0,1740.0,1739.0,1750.0,1733.0,99.26425170898438,-17.10280990600586,-44.24229431152344,Left
3431.654052734375,294076,1,1771.0,1747.0,1750.0,1739.0,1757.0,1740.0,1763.0,1737.0,99.26425170898438,-17.10280990600586,-44.24229431152344,Left
3433.654052734375,294076,1,1747.0,1746.0,1775.0,1763.0,1755.0,1741.0,1767.0,1767.0,99.26425170898438,-17.10280990600586,-44.24229431152344,Left
3435.654052734375,294076,1,1727.0,1757.0,1763.0,1769.0,1750.0,1743.0,1753.0,1757.0,99.26425170898438,-17.10280990600586,-44.24229431152344,Left
3437.654052734375,294076,1,1728.0,1762.0,1767.0,1764.0,1743.0,1752.0,1757.0,1773.0,99.26425170898438,-17.10280990600586,-44.24229431152344,Left
3444.264404296875,294077,1,1741.0,1768.0,1705.0,1763.0,1751.0,1741.0,1762.0,1735.0,99.32472229003906,-17.130163192749023,-44.36363983154297,Left
3446.264404296875,294077,1,1757.0,1743.0,1771.0,1755.0,1708.0,1753.0,1765.0,1749.0,99.32472229003906,-17.130163192749023,-44.36363983154297,Left
3448.264404296875,294077,1,1779.0,1749.0,1753.0,1755.0,1751.0,1754.0,1761.0,1739.0,99.32472229003906,-17.130163192749023,-44.36363983154297,Left
3450.264404296875,294077,1,1783.0,1767.0,1797.0,1771.0,1753.0,1749.0,1763.0,1753.0,99.32472229003906,-17.130163192749023,-44.36363983154297,Left
3452.264404296875,294077,1,1781.0,1752.0,1751.0,1755.0,1755.0,1749.0,1760.0,1742.0,99.32472229003906,-17.130163192749023,-44.36363983154297,Left
3450.125244140625,294078,1,1773.0,1763.0,1752.0,1756.0,1752.0,1753.0,1762.0,1743.0,99.32472229003906,-17.130163192749023,-44.36363983154297,Left
3452.125244140625,294078,1,1765.0,1764.0,1757.0,1747.0,1756.0,1753.0,1761.0,1735.0,99.32472229003906,-17.130163192749023,-44.36363983154297,Left
3454.125244140625,294078,1,1753.0,1759.0,1753.0,1767.0,1753.0,1751.0,1753.0,1753.0,99.32472229003906,-17.130163192749023,-44.36363983154297,Left
3456.125244140625,294078,1,1735.0,1767.0,1752.0,1753.0,1703.0,1755.0,1764.0,1757.0,99.32472229003906,-17.130163192749023,-44.36363983154297,Left
3458.125244140625,294078,1,1726.0,1757.0,1740.0,1765.0,1751.0,1756.0,1767.0,1756.0,99.32472229003906,-17.130163192749023,-44.36363983154297,Left
3490.404052734375,294079,1,1727.0,1755.0,1751.0,1759.0,1739.0,1755.0,1763.0,1759.0,99.32472229003906,-17.130163192749023,-44.36363983154297,Left
3492.404052734375,294079,1,1755.0,1749.0,1755.0,1755.0,1747.0,1748.0,1757.0,1757.0,99.32472229003906,-17.130163192749023,-44.36363983154297,Left
3494.404052734375,294079,1,1781.0,1757.0,1723.0,1740.0,1756.0,1753.0,1759.0,1739.0,99.32472229003906,-17.130163192749023,-44.36363983154297,Left
3496.404052734375,294079,1,1784.0,1751.0,1721.0,1757.0,1753.0,1743.0,1757.0,1735.0,99.32472229003906,-17.130163192749023,-44.36363983154297,Left
3498.404052734375,294079,1,1787.0,1782.0,1766.0,1789.0,1753.0,1753.0,1764.0,1725.0,99.32472229003906,-17.130163192749023,-44.36363983154297,Left
3491.1953125,294080,1,1781.0,1766.0,1800.0,1763.0,1743.0,1753.0,1763.0,1762.0,99.32472229003906,-17.130163192749023,-44.36363983154297,Left
3493.1953125,294080,1,1773.0,1745.0,1809.0,1765.0,1725.0,1753.0,1765.0,1773.0,99.32472229003906,-17.130163192749023,-44.36363983154297,Left
3495.1953125,294080,1,1756.0,1762.0,1749.0,1775.0,1756.0,1753.0,1762.0,1738.0,99.32472229003906,-17.130163192749023,-44.36363983154297,Left
3497.1953125,294080,1,1736.0,1755.0,1699.0,1727.0,1755.0,1751.0,1753.0,1751.0,99.32472229003906,-17.130163192749023,-44.36363983154297,Left
3499.1953125,294080,1,1725.0,1746.0,1813.0,1748.0,1751.0,1753.0,1753.0,1786.0,99.32472229003906,-17.130163192749023,-44.36363983154297,Left
3501.743408203125,294081,1,1745.0,1759.0,1740.0,1743.0,1755.0,1752.0,1757.0,1759.0,99.32472229003906,-17.130163192749023,-44.36363983154297,Left
3503.743408203125,294081,1,1756.0,1747.0,1749.0,1749.0,1754.0,1752.0,1757.0,1747.0,99.32472229003906,-17.130163192749023,-44.36363983154297,Left
3505.743408203125,294081,1,1773.0,1763.0,1747.0,1767.0,1749.0,1752.0,1764.0,1723.0,99.32472229003906,-17.130163192749023,-44.36363983154297,Left
3507.743408203125,294081,1,1787.0,1763.0,1773.0,1747.0,1753.0,1751.0,1761.0,1747.0,99.32472229003906,-17.130163192749023,-44.36363983154297,Left
3509.743408203125,294081,1,1787.0,1762.0,1741.0,1755.0,1755.0,1752.0,1759.0,1737.0,99.32472229003906,-17.130163192749023,-44.36363983154297,Left
3502.6171875,294082,1,1779.0,1763.0,1767.0,1774.0,1753.0,1754.0,1764.0,1722.0,99.32472229003906,-17.130163192749023,-44.36363983154297,Left
3504.6171875,294082,1,1767.0,1753.0,1747.0,1749.0,1757.0,1755.0,1763.0,1717.0,99.32472229003906,-17.130163192749023,-44.36363983154297,Left
3506.6171875,294082,1,1753.0,1749.0,1758.0,1759.0,1755.0,1754.0,1764.0,1755.0,99.32472229003906,-17.130163192749023,-44.36363983154297,Left
3508.6171875,294082,1,1735.0,1763.0,1750.0,1755.0,1742.0,1752.0,1765.0,1742.0,99.32472229003906,-17.130163192749023,-44.36363983154297,Left
3510.6171875,294082,1,1735.0,1743.0,1749.0,1762.0,1755.0,1753.0,1765.0,1763.0,99.32472229003906,-17.130163192749023,-44.36363983154297,Left
3514.01123046875,294083,1,1741.0,1762.0,1772.0,1753.0,1751.0,1741.0,1766.0,1779.0,99.32472229003906,-17.130163192749023,-44.36363983154297,Left
3516.01123046875,294083,1,1769.0,1756.0,1779.0,1770.0,1752.0,1753.0,1751.0,1759.0,99.32472229003906,-17.130163192749023,-44.36363983154297,Left
3518.01123046875,294083,1,1780.0,1763.0,1735.0,1751.0,1755.0,1751.0,1767.0,1735.0,99.33334350585938,-17.120845794677734,-44.402366638183594,Left
3520.01123046875,294083,1,1789.0,1753.0,1757.0,1746.0,1755.0,1754.0,1752.0,1756.0,99.33334350585938,-17.120845794677734,-44.402366638183594,Left
3522.01123046875,294083,1,1789.0,1767.0,1770.0,1768.0,1751.0,1751.0,1752.0,1742.0,99.33334350585938,-17.120845794677734,-44.402366638183594,Left
3514.744384765625,294084,1,1779.0,1755.0,1769.0,1768.0,1741.0,1755.0,1763.0,1723.0,99.33334350585938,-17.120845794677734,-44.402366638183594,Left
3516.744384765625,294084,1,1771.0,1741.0,1719.0,1755.0,1755.0,1755.0,1763.0,1719.0,99.33334350585938,-17.120845794677734,-44.402366638183594,Left
3518.744384765625,294084,1,1747.0,1757.0,1749.0,1749.0,1753.0,1741.0,1759.0,1746.0,99.33334350585938,-17.120845794677734,-44.402366638183594,Left
3520.744384765625,294084,1,1737.0,1757.0,1739.0,1755.0,1755.0,1753.0,1759.0,1756.0,99.33334350585938,-17.120845794677734,-44.402366638183594,Left
3522.744384765625,294084,1,1725.0,1770.0,1722.0,1757.0,1755.0,1743.0,1753.0,1723.0,99.33334350585938,-17.120845794677734,-44.402366638183594,Left
3518.836181640625,294085,1,1739.0,1757.0,1781.0,1783.0,1754.0,1745.0,1757.0,1784.0,99.33334350585938,-17.120845794677734,-44.402366638183594,Left
3520.836181640625,294085,1,1765.0,1759.0,1773.0,1755.0,1755.0,1743.0,1759.0,1810.0,99.33334350585938,-17.120845794677734,-44.402366638183594,Left
3522.836181640625,294085,1,1781.0,1745.0,1848.0,1727.0,1755.0,1756.0,1763.0,1787.0,99.33334350585938,-17.120845794677734,-44.402366638183594,Left
3524.836181640625,294085,1,1775.0,1719.0,1715.0,1719.0,1727.0,1748.0,1756.0,1705.0,99.33334350585938,-17.120845794677734,-44.402366638183594,Left
3526.836181640625,294085,1,1784.0,1768.0,1769.0,1768.0,1754.0,1741.0,1751.0,1721.0,99.33334350585938,-17.120845794677734,-44.402366638183594,Left
3529.396240234375,294086,1,1781.0,1749.0,1747.0,1768.0,1749.0,1752.0,1763.0,1725.0,99.33334350585938,-17.120845794677734,-44.402366638183594,Left
3531.396240234375,294086,1,1751.0,1769.0,1737.0,1758.0,1754.0,1755.0,1765.0,1725.0,99.33334350585938,-17.120845794677734,-44.402366638183594,Left
3533.396240234375,294086,1,1743.0,1766.0,1755.0,1757.0,1753.0,1752.0,1765.0,1747.0,99.33334350585938,-17.120845794677734,-44.402366638183594,Left
3535.396240234375,294086,1,1722.0,1762.0,1749.0,1753.0,1747.0,1746.0,1764.0,1748.0,99.33334350585938,-17.120845794677734,-44.402366638183594,Left
3537.396240234375,294086,1,1725.0,1762.0,1747.0,1767.0,1753.0,1757.0,1766.0,1753.0,99.33334350585938,-17.120845794677734,-44.402366638183594,Left
3544.865966796875,294087,1,1743.0,1757.0,1747.0,1735.0,1751.0,1752.0,1762.0,1773.0,99.33334350585938,-17.120845794677734,-44.402366638183594,Left
3546.865966796875,294087,1,1753.0,1757.0,1767.0,1762.0,1752.0,1749.0,1757.0,1770.0,99.33334350585938,-17.120845794677734,-44.402366638183594,Left
3548.865966796875,294087,1,1781.0,1770.0,1771.0,1765.0,1751.0,1751.0,1762.0,1753.0,99.33334350585938,-17.120845794677734,-44.402366638183594,Left
3550.865966796875,294087,1,1789.0,1763.0,1727.0,1749.0,1753.0,1752.0,1761.0,1737.0,99.33334350585938,-17.120845794677734,-44.402366638183594,Left
3552.865966796875,294087,1,1787.0,1756.0,1753.0,1753.0,1743.0,1743.0,1759.0,1738.0,99.33334350585938,-17.120845794677734,-44.402366638183594,Left
3550.46728515625,294088,1,1783.0,1748.0,1833.0,1772.0,1757.0,1735.0,1749.0,1751.0,99.33334350585938,-17.120845794677734,-44.402366638183594,Left
3552.46728515625,294088,1,1773.0,1758.0,1764.0,1763.0,1751.0,1753.0,1763.0,1747.0,99.33334350585938,-17.120845794677734,-44.402366638183594,Left
3554.46728515625,294088,1,1746.0,1767.0,1739.0,1749.0,1749.0,1757.0,1765.0,1737.0,99.33334350585938,-17.120845794677734,-44.402366638183594,Left
3556.46728515625,294088,1,1733.0,1748.0,1708.0,1736.0,1747.0,1757.0,1763.0,1737.0,99.33334350585938,-17.120845794677734,-44.402366638183594,Left
3558.46728515625,294088,1,1727.0,1757.0,1772.0,1799.0,1746.0,1751.0,1745.0,1751.0,99.33334350585938,-17.120845794677734,-44.402366638183594,Left
3559.107177734375,294089,1,1745.0,1721.0,1742.0,1739.0,1755.0,1754.0,1753.0,1756.0,99.33334350585938,-17.120845794677734,-44.402366638183594,Left
3561.107177734375,294089,1,1767.0,1773.0,1747.0,1757.0,1755.0,1753.0,1758.0,1751.0,99.33334350585938,-17.120845794677734,-44.402366638183594,Left
3563.107177734375,294089,1,1781.0,1749.0,1738.0,1739.0,1753.0,1751.0,1759.0,1721.0,99.33334350585938,-17.120845794677734,-44.402366638183594,Left
3565.107177734375,294089,1,1785.0,1756.0,1743.0,1757.0,1751.0,1753.0,1764.0,1711.0,99.33334350585938,-17.120845794677734,-44.402366638183594,Left
3567.107177734375,294089,1,1789.0,1765.0,1741.0,1768.0,1751.0,1753.0,1757.0,1763.0,99.44464111328125,-17.070161819458008,-44.41962432861328,Left
3577.79833984375,294090,1,1770.0,1763.0,1861.0,1767.0,1756.0,1741.0,1759.0,1771.0,99.44464111328125,-17.070161819458008,-44.41962432861328,Left
3579.79833984375,294090,1,1763.0,1741.0,1752.0,1747.0,1752.0,1752.0,1761.0,1735.0,99.44464111328125,-17.070161819458008,-44.41962432861328,Left
3581.79833984375,294090,1,1753.0,1765.0,1747.0,1759.0,1752.0,1752.0,1756.0,1747.0,99.44464111328125,-17.070161819458008,-44.41962432861328,Left
3583.79833984375,294090,1,1735.0,1765.0,1763.0,1771.0,1753.0,1755.0,1753.0,1767.0,99.44464111328125,-17.070161819458008,-44.41962432861328,Left
3585.79833984375,294090,1,1733.0,1767.0,1759.0,1749.0,1753.0,1755.0,1765.0,1757.0,99.44464111328125,-17.070161819458008,-44.41962432861328,Left
3578.5732421875,294091,1,1741.0,1750.0,1737.0,1768.0,1752.0,1751.0,1752.0,1749.0,99.44464111328125,-17.070161819458008,-44.41962432861328,Left
3580.5732421875,294091,1,1755.0,1752.0,1749.0,1750.0,1756.0,1751.0,1755.0,1753.0,99.44464111328125,-17.070161819458008,-44.41962432861328,Left
3582.5732421875,294091,1,1783.0,1771.0,1755.0,1755.0,1753.0,1749.0,1752.0,1735.0,99.44464111328125,-17.070161819458008,-44.41962432861328,Left
3584.5732421875,294091,1,1783.0,1755.0,1748.0,1764.0,1751.0,1739.0,1764.0,1724.0,99.44464111328125,-17.070161819458008,-44.41962432861328,Left
3586.5732421875,294091,1,1785.0,1753.0,1775.0,1763.0,1752.0,1751.0,1765.0,1753.0,99.44464111328125,-17.070161819458008,-44.41962432861328,Left
3589.089111328125,294092,1,1779.0,1758.0,1738.0,1758.0,1753.0,1747.0,1757.0,1743.0,99.44464111328125,-17.070161819458008,-44.41962432861328,Left
3591.089111328125,294092,1,1769.0,1753.0,1771.0,1753.0,1758.0,1751.0,1765.0,1739.0,99.44464111328125,-17.070161819458008,-44.41962432861328,Left
3593.089111328125,294092,1,1752.0,1758.0,1779.0,1767.0,1743.0,1752.0,1763.0,1739.0,99.44464111328125,-17.070161819458008,-44.41962432861328,Left
3595.089111328125,294092,1,1723.0,1769.0,1701.0,1780.0,1753.0,1751.0,1763.0,1717.0,99.44464111328125,-17.070161819458008,-44.41962432861328,Left
3597.089111328125,294092,1,1727.0,1752.0,1739.0,1735.0,1743.0,1755.0,1755.0,1769.0,99.44464111328125,-17.070161819458008,-44.41962432861328,Left
3605.92041015625,294093,1,1739.0,1756.0,1813.0,1753.0,1751.0,1753.0,1753.0,1807.0,99.44464111328125,-17.070161819458008,-44.41962432861328,Left
3607.92041015625,294093,1,1756.0,1745.0,1752.0,1770.0,1740.0,1749.0,1748.0,1751.0,99.44464111328125,-17.070161819458008,-44.41962432861328,Left
3609.92041015625,294093,1,1779.0,1753.0,1755.0,1765.0,1753.0,1749.0,1758.0,1724.0,99.44464111328125,-17.070161819458008,-44.41962432861328,Left
3611.92041015625,294093,1,1783.0,1755.0,1753.0,1755.0,1741.0,1740.0,1757.0,1737.0,99.44464111328125,-17.070161819458008,-44.41962432861328,Left
3613.92041015625,294093,1,1784.0,1749.0,1757.0,1762.0,1755.0,1749.0,1753.0,1741.0,99.44464111328125,-17.070161819458008,-44.41962432861328,Left
3619.52197265625,294094,1,1775.0,1768.0,1747.0,1763.0,1753.0,1752.0,1759.0,1733.0,99.44464111328125,-17.070161819458008,-44.41962432861328,Left
3621.52197265625,294094,1,1769.0,1765.0,1739.0,1755.0,1747.0,1754.0,1764.0,1735.0,99.44464111328125,-17.070161819458008,-44.41962432861328,Left
3623.52197265625,294094,1,1752.0,1765.0,1763.0,1747.0,1752.0,1741.0,1752.0,1749.0,99.44464111328125,-17.070161819458008,-44.41962432861328,Left
3625.52197265625,294094,1,1734.0,1763.0,1772.0,1767.0,1755.0,1753.0,1761.0,1769.0,99.44464111328125,-17.070161819458008,-44.41962432861328,Left
3627.52197265625,294094,1,1715.0,1764.0,1727.0,1749.0,1755.0,1742.0,1753.0,1753.0,99.44464111328125,-17.070161819458008,-44.41962432861328,Left
3620.393310546875,294095,1,1740.0,1741.0,1745.0,1763.0,1752.0,1753.0,1763.0,1753.0,99.44464111328125,-17.070161819458008,-44.41962432861328,Left
3622.393310546875,294095,1,1766.0,1754.0,1781.0,1763.0,1751.0,1751.0,1763.0,1763.0,99.44464111328125,-17.070161819458008,-44.41962432861328,Left
3624.393310546875,294095,1,1781.0,1753.0,1783.0,1749.0,1755.0,1753.0,1764.0,1753.0,99.44464111328125,-17.070161819458008,-44.41962432861328,Left
