Timestamp_ms,Packet_Number,Trial_ID,Ch1,Ch2,Ch3,Ch4,Ch5,Ch6,Ch7,Ch8,Ch9,Ch10,Ch11,Label
2049.2099609375,22249,1,1758.0,1770.0,1891.0,1301.0,1753.0,1631.0,1763.0,1699.0,103.94398498535156,-37.565181732177734,-12.9304780960083,Left
2051.2099609375,22249,1,1755.0,1765.0,2003.0,1895.0,1749.0,1682.0,1758.0,1724.0,104.9197006225586,-38.579959869384766,-14.061924934387207,Left
2053.2099609375,22249,1,1757.0,1764.0,1695.0,2152.0,1763.0,1721.0,1765.0,1771.0,104.9197006225586,-38.579959869384766,-14.061924934387207,Left
2055.2099609375,22249,1,1767.0,1769.0,1459.0,3048.0,1727.0,1724.0,1755.0,1740.0,104.9197006225586,-38.579959869384766,-14.061924934387207,Left
2057.2099609375,22249,1,1757.0,1755.0,1844.0,3219.0,1750.0,1749.0,1765.0,1765.0,104.9197006225586,-38.579959869384766,-14.061924934387207,Left
2056.4560546875,22250,1,1762.0,1757.0,1749.0,2352.0,1749.0,1727.0,1759.0,1803.0,104.9197006225586,-38.579959869384766,-14.061924934387207,Left
2058.4560546875,22250,1,1757.0,1753.0,1712.0,1687.0,1747.0,1767.0,1745.0,1701.0,104.9197006225586,-38.579959869384766,-14.061924934387207,Left
2060.4560546875,22250,1,1759.0,1755.0,1767.0,1385.0,1764.0,1791.0,1766.0,1709.0,104.9197006225586,-38.579959869384766,-14.061924934387207,Left
2062.4560546875,22250,1,1763.0,1748.0,1819.0,531.0,1765.0,1595.0,1753.0,1714.0,104.9197006225586,-38.579959869384766,-14.061924934387207,Left
2064.4560546875,22250,1,1759.0,1763.0,1672.0,342.0,1765.0,1629.0,1759.0,1735.0,104.9197006225586,-38.579959869384766,-14.061924934387207,Left
2063.2880859375,22251,1,1757.0,1758.0,1703.0,1223.0,1739.0,1715.0,1764.0,1845.0,104.9197006225586,-38.579959869384766,-14.061924934387207,Left
2065.2880859375,22251,1,1758.0,1780.0,1821.0,1879.0,1751.0,1867.0,1764.0,1783.0,104.9197006225586,-38.579959869384766,-14.061924934387207,Left
2067.2880859375,22251,1,1763.0,1773.0,1885.0,2129.0,1741.0,1775.0,1759.0,1774.0,104.9197006225586,-38.579959869384766,-14.061924934387207,Left
2069.2880859375,22251,1,1758.0,1765.0,1673.0,2997.0,1751.0,1934.0,1762.0,1643.0,104.9197006225586,-38.579959869384766,-14.061924934387207,Left
2071.2880859375,22251,1,1755.0,1763.0,1773.0,3219.0,1751.0,1814.0,1764.0,1749.0,104.9197006225586,-38.579959869384766,-14.061924934387207,Left
2074.091064453125,22252,1,1758.0,1735.0,1751.0,2330.0,1748.0,1766.0,1763.0,1780.0,104.9197006225586,-38.579959869384766,-14.061924934387207,Left
2076.091064453125,22252,1,1763.0,1755.0,1749.0,1739.0,1751.0,1775.0,1763.0,1763.0,104.9197006225586,-38.579959869384766,-14.061924934387207,Left
2078.091064453125,22252,1,1759.0,1752.0,1767.0,1351.0,1752.0,1673.0,1755.0,1755.0,104.9197006225586,-38.579959869384766,-14.061924934387207,Left
2080.091064453125,22252,1,1759.0,1751.0,1709.0,491.0,1748.0,1679.0,1759.0,1756.0,104.9197006225586,-38.579959869384766,-14.061924934387207,Left
2082.091064453125,22252,1,1755.0,1763.0,1683.0,341.0,1752.0,1646.0,1763.0,1715.0,104.9197006225586,-38.579959869384766,-14.061924934387207,Left
2084.06103515625,22253,1,1755.0,1757.0,1753.0,1205.0,1749.0,1753.0,1762.0,1725.0,104.9197006225586,-38.579959869384766,-14.061924934387207,Left
2086.06103515625,22253,1,1757.0,1757.0,1717.0,1895.0,1757.0,1747.0,1763.0,1747.0,104.9197006225586,-38.579959869384766,-14.061924934387207,Left
2088.06103515625,22253,1,1758.0,1768.0,1672.0,2127.0,1755.0,1709.0,1763.0,1716.0,104.9197006225586,-38.579959869384766,-14.061924934387207,Left
2090.06103515625,22253,1,1759.0,1763.0,2156.0,2995.0,1751.0,1834.0,1759.0,1818.0,104.9197006225586,-38.579959869384766,-14.061924934387207,Left
2092.06103515625,22253,1,1763.0,1753.0,1782.0,3291.0,1751.0,1876.0,1763.0,1831.0,104.9197006225586,-38.579959869384766,-14.061924934387207,Left
2095.777099609375,22254,1,1758.0,1758.0,1671.0,2283.0,1755.0,1901.0,1765.0,1683.0,104.9197006225586,-38.579959869384766,-14.061924934387207,Left
2097.777099609375,22254,1,1763.0,1759.0,1815.0,1621.0,1753.0,1912.0,1755.0,1726.0,104.9197006225586,-38.579959869384766,-14.061924934387207,Left
2099.777099609375,22254,1,1763.0,1763.0,1593.0,1299.0,1754.0,1957.0,1755.0,1759.0,104.9197006225586,-38.579959869384766,-14.061924934387207,Left
2101.777099609375,22254,1,1761.0,1751.0,1699.0,524.0,1743.0,1867.0,1756.0,1757.0,104.9197006225586,-38.579959869384766,-14.061924934387207,Left
2103.777099609375,22254,1,1753.0,1753.0,1741.0,281.0,1742.0,1813.0,1758.0,1789.0,104.9197006225586,-38.579959869384766,-14.061924934387207,Left
2105.43212890625,22255,1,1759.0,1769.0,1831.0,1161.0,1749.0,1811.0,1745.0,1763.0,104.9197006225586,-38.579959869384766,-14.061924934387207,Left
2107.43212890625,22255,1,1763.0,1755.0,1655.0,1827.0,1753.0,1861.0,1763.0,1691.0,104.9197006225586,-38.579959869384766,-14.061924934387207,Left
2109.43212890625,22255,1,1757.0,1761.0,1608.0,2153.0,1750.0,1803.0,1757.0,1753.0,104.9197006225586,-38.579959869384766,-14.061924934387207,Left
2111.43212890625,22255,1,1763.0,1767.0,1899.0,2899.0,1749.0,1791.0,1763.0,1784.0,104.9197006225586,-38.579959869384766,-14.061924934387207,Left
2113.43212890625,22255,1,1757.0,1759.0,1719.0,3230.0,1762.0,1865.0,1759.0,1709.0,106.74771118164062,-39.45589828491211,-15.525651931762695,Left
2113.5810546875,22256,1,1763.0,1737.0,1790.0,2355.0,1779.0,1709.0,1757.0,1692.0,106.74771118164062,-39.45589828491211,-15.525651931762695,Left
2115.5810546875,22256,1,1766.0,1763.0,1706.0,1685.0,1756.0,1652.0,1757.0,1835.0,106.74771118164062,-39.45589828491211,-15.525651931762695,Left
2117.5810546875,22256,1,1757.0,1763.0,1803.0,1443.0,1746.0,1739.0,1763.0,1625.0,106.74771118164062,-39.45589828491211,-15.525651931762695,Left
2119.5810546875,22256,1,1763.0,1751.0,1637.0,711.0,1751.0,1681.0,1759.0,1661.0,106.74771118164062,-39.45589828491211,-15.525651931762695,Left
2121.5810546875,22256,1,1753.0,1751.0,1799.0,391.0,1775.0,1620.0,1763.0,1876.0,106.74771118164062,-39.45589828491211,-15.525651931762695,Left
2123.0869140625,22257,1,1753.0,1765.0,1582.0,1329.0,1774.0,1736.0,1758.0,1816.0,106.74771118164062,-39.45589828491211,-15.525651931762695,Left
2125.0869140625,22257,1,1757.0,1765.0,1781.0,1966.0,1705.0,1831.0,1753.0,1797.0,106.74771118164062,-39.45589828491211,-15.525651931762695,Left
2127.0869140625,22257,1,1759.0,1753.0,1907.0,2147.0,1693.0,1848.0,1758.0,1717.0,106.74771118164062,-39.45589828491211,-15.525651931762695,Left
2129.0869140625,22257,1,1763.0,1768.0,1823.0,2840.0,1749.0,1865.0,1763.0,1775.0,106.74771118164062,-39.45589828491211,-15.525651931762695,Left
2131.0869140625,22257,1,1763.0,1763.0,1683.0,3255.0,1756.0,1827.0,1763.0,1597.0,106.74771118164062,-39.45589828491211,-15.525651931762695,Left
2135.29296875,22258,1,1757.0,1764.0,1674.0,2311.0,1763.0,1686.0,1764.0,1773.0,106.74771118164062,-39.45589828491211,-15.525651931762695,Left
2137.29296875,22258,1,1762.0,1757.0,1849.0,1645.0,1753.0,1704.0,1764.0,1816.0,106.74771118164062,-39.45589828491211,-15.525651931762695,Left
2139.29296875,22258,1,1763.0,1757.0,1823.0,1311.0,1763.0,1718.0,1752.0,1725.0,106.74771118164062,-39.45589828491211,-15.525651931762695,Left
2141.29296875,22258,1,1757.0,1752.0,1671.0,639.0,1769.0,1677.0,1751.0,1751.0,106.74771118164062,-39.45589828491211,-15.525651931762695,Left
2143.29296875,22258,1,1762.0,1762.0,1676.0,280.0,1727.0,1598.0,1753.0,1755.0,106.74771118164062,-39.45589828491211,-15.525651931762695,Left
2144.161865234375,22259,1,1756.0,1763.0,1876.0,1263.0,1735.0,1685.0,1756.0,1767.0,106.74771118164062,-39.45589828491211,-15.525651931762695,Left
2146.161865234375,22259,1,1756.0,1763.0,1733.0,1909.0,1752.0,1723.0,1763.0,1719.0,106.74771118164062,-39.45589828491211,-15.525651931762695,Left
2148.161865234375,22259,1,1763.0,1759.0,1741.0,2180.0,1757.0,1736.0,1759.0,1721.0,106.74771118164062,-39.45589828491211,-15.525651931762695,Left
2150.161865234375,22259,1,1757.0,1770.0,1877.0,2899.0,1754.0,1787.0,1759.0,1821.0,106.74771118164062,-39.45589828491211,-15.525651931762695,Left
2152.161865234375,22259,1,1761.0,1768.0,1693.0,3575.0,1749.0,1823.0,1755.0,1735.0,106.74771118164062,-39.45589828491211,-15.525651931762695,Left
2155.597900390625,22260,1,1753.0,1749.0,1624.0,2543.0,1746.0,1890.0,1765.0,1711.0,106.74771118164062,-39.45589828491211,-15.525651931762695,Left
2157.597900390625,22260,1,1761.0,1738.0,1693.0,1737.0,1746.0,1907.0,1754.0,1757.0,106.74771118164062,-39.45589828491211,-15.525651931762695,Left
2159.597900390625,22260,1,1753.0,1751.0,1799.0,1315.0,1743.0,1765.0,1763.0,1775.0,106.74771118164062,-39.45589828491211,-15.525651931762695,Left
2161.597900390625,22260,1,1753.0,1781.0,1723.0,583.0,1748.0,1597.0,1753.0,1737.0,106.74771118164062,-39.45589828491211,-15.525651931762695,Left
2163.597900390625,22260,1,1751.0,1768.0,1786.0,0.0,1725.0,1565.0,1752.0,1767.0,106.74771118164062,-39.45589828491211,-15.525651931762695,Left
2162.89892578125,22261,1,1759.0,1753.0,1780.0,787.0,1755.0,1593.0,1763.0,1773.0,106.74771118164062,-39.45589828491211,-15.525651931762695,Left
2164.89892578125,22261,1,1755.0,1727.0,1802.0,1658.0,1789.0,1749.0,1761.0,1610.0,106.74771118164062,-39.45589828491211,-15.525651931762695,Left
2166.89892578125,22261,1,1752.0,1717.0,1717.0,2108.0,1765.0,1640.0,1755.0,1695.0,106.74771118164062,-39.45589828491211,-15.525651931762695,Left
2168.89892578125,22261,1,1759.0,1787.0,1779.0,2892.0,1772.0,1656.0,1765.0,1747.0,106.74771118164062,-39.45589828491211,-15.525651931762695,Left
2170.89892578125,22261,1,1754.0,1797.0,1775.0,3817.0,1757.0,1719.0,1765.0,1785.0,106.74771118164062,-39.45589828491211,-15.525651931762695,Left
2173.7890625,22262,1,1758.0,1726.0,1709.0,2735.0,1709.0,1677.0,1765.0,1833.0,106.74771118164062,-39.45589828491211,-15.525651931762695,Left
2175.7890625,22262,1,1763.0,1764.0,1733.0,1903.0,1750.0,1609.0,1762.0,1765.0,108.79655456542969,-39.867515563964844,-17.055362701416016,Left
2177.7890625,22262,1,1762.0,1763.0,1891.0,1385.0,1748.0,1610.0,1764.0,1781.0,108.79655456542969,-39.867515563964844,-17.055362701416016,Left
2179.7890625,22262,1,1757.0,1755.0,1817.0,764.0,1756.0,1592.0,1751.0,1727.0,108.79655456542969,-39.867515563964844,-17.055362701416016,Left
2181.7890625,22262,1,1758.0,1755.0,1653.0,0.0,1739.0,1443.0,1762.0,1694.0,108.79655456542969,-39.867515563964844,-17.055362701416016,Left
2184.012939453125,22263,1,1759.0,1769.0,1775.0,877.0,1755.0,1466.0,1755.0,1755.0,108.79655456542969,-39.867515563964844,-17.055362701416016,Left
2186.012939453125,22263,1,1759.0,1765.0,1613.0,1687.0,1780.0,1613.0,1763.0,1719.0,108.79655456542969,-39.867515563964844,-17.055362701416016,Left
2188.012939453125,22263,1,1763.0,1755.0,1789.0,2091.0,1784.0,1669.0,1762.0,1741.0,108.79655456542969,-39.867515563964844,-17.055362701416016,Left
2190.012939453125,22263,1,1755.0,1773.0,1764.0,2783.0,1724.0,1750.0,1759.0,1827.0,108.79655456542969,-39.867515563964844,-17.055362701416016,Left
2192.012939453125,22263,1,1757.0,1755.0,1782.0,3799.0,1707.0,1783.0,1763.0,1743.0,108.79655456542969,-39.867515563964844,-17.055362701416016,Left
2193.776123046875,22264,1,1759.0,1758.0,1720.0,2685.0,1737.0,1784.0,1755.0,1687.0,108.79655456542969,-39.867515563964844,-17.055362701416016,Left
2195.776123046875,22264,1,1753.0,1758.0,1769.0,1831.0,1752.0,1855.0,1759.0,1676.0,108.79655456542969,-39.867515563964844,-17.055362701416016,Left
2197.776123046875,22264,1,1755.0,1763.0,1772.0,1307.0,1759.0,1865.0,1753.0,1829.0,108.79655456542969,-39.867515563964844,-17.055362701416016,Left
2199.776123046875,22264,1,1758.0,1749.0,1780.0,788.0,1763.0,1801.0,1759.0,1752.0,108.79655456542969,-39.867515563964844,-17.055362701416016,Left
2201.776123046875,22264,1,1762.0,1759.0,1781.0,25.0,1742.0,1755.0,1763.0,1753.0,108.79655456542969,-39.867515563964844,-17.055362701416016,Left
2204.51708984375,22265,1,1759.0,1765.0,1619.0,933.0,1742.0,1711.0,1758.0,1737.0,108.79655456542969,-39.867515563964844,-17.055362701416016,Left
2206.51708984375,22265,1,1757.0,1767.0,1757.0,1717.0,1755.0,1907.0,1757.0,1748.0,108.79655456542969,-39.867515563964844,-17.055362701416016,Left
2208.51708984375,22265,1,1763.0,1761.0,1753.0,2121.0,1768.0,1880.0,1752.0,1736.0,108.79655456542969,-39.867515563964844,-17.055362701416016,Left
2210.51708984375,22265,1,1759.0,1767.0,1651.0,2725.0,1749.0,1927.0,1764.0,1723.0,108.79655456542969,-39.867515563964844,-17.055362701416016,Left
2212.51708984375,22265,1,1763.0,1772.0,1800.0,3819.0,1779.0,1895.0,1765.0,1781.0,108.79655456542969,-39.867515563964844,-17.055362701416016,Left
2213.98193359375,22266,1,1763.0,1767.0,1799.0,2670.0,1757.0,1929.0,1764.0,1739.0,108.79655456542969,-39.867515563964844,-17.055362701416016,Left
2215.98193359375,22266,1,1763.0,1763.0,1581.0,1834.0,1719.0,1886.0,1763.0,1689.0,108.79655456542969,-39.867515563964844,-17.055362701416016,Left
2217.98193359375,22266,1,1756.0,1751.0,1785.0,1387.0,1739.0,1724.0,1763.0,1800.0,108.79655456542969,-39.867515563964844,-17.055362701416016,Left
2219.98193359375,22266,1,1763.0,1753.0,1900.0,940.0,1746.0,1716.0,1756.0,1789.0,108.79655456542969,-39.867515563964844,-17.055362701416016,Left
2221.98193359375,22266,1,1757.0,1757.0,1849.0,63.0,1762.0,1723.0,1752.0,1721.0,108.79655456542969,-39.867515563964844,-17.055362701416016,Left
2223.7109375,22267,1,1759.0,1767.0,1723.0,853.0,1753.0,1753.0,1759.0,1691.0,108.79655456542969,-39.867515563964844,-17.055362701416016,Left
2225.7109375,22267,1,1757.0,1765.0,1676.0,1703.0,1751.0,1683.0,1753.0,1738.0,108.79655456542969,-39.867515563964844,-17.055362701416016,Left
2227.7109375,22267,1,1757.0,1759.0,1885.0,2090.0,1741.0,1707.0,1764.0,1811.0,108.79655456542969,-39.867515563964844,-17.055362701416016,Left
2229.7109375,22267,1,1763.0,1769.0,1631.0,2541.0,1749.0,1784.0,1765.0,1782.0,108.79655456542969,-39.867515563964844,-17.055362701416016,Left
2231.7109375,22267,1,1755.0,1767.0,1843.0,3511.0,1753.0,1820.0,1755.0,1693.0,108.79655456542969,-39.867515563964844,-17.055362701416016,Left
2234.453857421875,22268,1,1757.0,1759.0,1694.0,2682.0,1747.0,1799.0,1763.0,1710.0,108.79655456542969,-39.867515563964844,-17.055362701416016,Left
2236.453857421875,22268,1,1754.0,1759.0,1786.0,1849.0,1763.0,1770.0,1763.0,1789.0,108.79655456542969,-39.867515563964844,-17.055362701416016,Left
2238.453857421875,22268,1,1757.0,1767.0,1897.0,1359.0,1767.0,1754.0,1763.0,1819.0,108.79655456542969,-39.867515563964844,-17.055362701416016,Left
2240.453857421875,22268,1,1763.0,1749.0,1827.0,1031.0,1739.0,1719.0,1763.0,1801.0,108.79655456542969,-39.867515563964844,-17.055362701416016,Left
2242.453857421875,22268,1,1763.0,1743.0,1693.0,81.0,1746.0,1694.0,1759.0,1659.0,110.60604095458984,-39.77378845214844,-18.40062713623047,Left
2243.72900390625,22269,1,1759.0,1767.0,1688.0,851.0,1751.0,1733.0,1763.0,1747.0,110.60604095458984,-39.77378845214844,-18.40062713623047,Left
2245.72900390625,22269,1,1757.0,1773.0,1828.0,1625.0,1741.0,1779.0,1765.0,1779.0,110.60604095458984,-39.77378845214844,-18.40062713623047,Left
2247.72900390625,22269,1,1763.0,1763.0,1754.0,2027.0,1751.0,1789.0,1755.0,1741.0,110.60604095458984,-39.77378845214844,-18.40062713623047,Left
2249.72900390625,22269,1,1759.0,1781.0,1407.0,2402.0,1779.0,1779.0,1764.0,1687.0,110.60604095458984,-39.77378845214844,-18.40062713623047,Left
2251.72900390625,22269,1,1759.0,1763.0,1757.0,3529.0,1753.0,1815.0,1763.0,1835.0,110.60604095458984,-39.77378845214844,-18.40062713623047,Left
2254.05322265625,22270,1,1759.0,1735.0,1931.0,2712.0,1755.0,1726.0,1765.0,1817.0,110.60604095458984,-39.77378845214844,-18.40062713623047,Left
2256.05322265625,22270,1,1761.0,1753.0,1655.0,1945.0,1738.0,1723.0,1763.0,1708.0,110.60604095458984,-39.77378845214844,-18.40062713623047,Left
2258.05322265625,22270,1,1763.0,1753.0,1677.0,1463.0,1727.0,1678.0,1765.0,1651.0,110.60604095458984,-39.77378845214844,-18.40062713623047,Left
2260.05322265625,22270,1,1754.0,1767.0,1625.0,1147.0,1763.0,1627.0,1763.0,1783.0,110.60604095458984,-39.77378845214844,-18.40062713623047,Left
2262.05322265625,22270,1,1759.0,1750.0,1783.0,227.0,1753.0,1621.0,1757.0,1737.0,110.60604095458984,-39.77378845214844,-18.40062713623047,Left
2263.83203125,22271,1,1759.0,1739.0,1993.0,908.0,1752.0,1651.0,1758.0,1865.0,110.60604095458984,-39.77378845214844,-18.40062713623047,Left
2265.83203125,22271,1,1759.0,1767.0,1800.0,1683.0,1749.0,1752.0,1759.0,1757.0,110.60604095458984,-39.77378845214844,-18.40062713623047,Left
2267.83203125,22271,1,1764.0,1773.0,1814.0,2085.0,1787.0,1775.0,1763.0,1812.0,110.60604095458984,-39.77378845214844,-18.40062713623047,Left
2269.83203125,22271,1,1759.0,1763.0,1753.0,2410.0,1771.0,1813.0,1765.0,1769.0,110.60604095458984,-39.77378845214844,-18.40062713623047,Left
2271.83203125,22271,1,1759.0,1759.0,1428.0,3495.0,1690.0,1829.0,1764.0,1641.0,110.60604095458984,-39.77378845214844,-18.40062713623047,Left
2273.43896484375,22272,1,1759.0,1745.0,1619.0,2709.0,1759.0,1983.0,1759.0,1721.0,110.60604095458984,-39.77378845214844,-18.40062713623047,Left
2275.43896484375,22272,1,1759.0,1763.0,1830.0,1959.0,1755.0,1944.0,1759.0,1787.0,110.60604095458984,-39.77378845214844,-18.40062713623047,Left
2277.43896484375,22272,1,1763.0,1755.0,1877.0,1477.0,1743.0,1925.0,1753.0,1747.0,110.60604095458984,-39.77378845214844,-18.40062713623047,Left
2279.43896484375,22272,1,1755.0,1761.0,2099.0,1211.0,1741.0,1791.0,1759.0,1721.0,110.60604095458984,-39.77378845214844,-18.40062713623047,Left
2281.43896484375,22272,1,1756.0,1752.0,1658.0,198.0,1745.0,1715.0,1759.0,1684.0,110.60604095458984,-39.77378845214844,-18.40062713623047,Left
2284.739013671875,22273,1,1759.0,1782.0,1695.0,827.0,1757.0,1643.0,1763.0,1869.0,110.60604095458984,-39.77378845214844,-18.40062713623047,Left
2286.739013671875,22273,1,1754.0,1786.0,1916.0,1577.0,1771.0,1688.0,1758.0,1789.0,110.60604095458984,-39.77378845214844,-18.40062713623047,Left
2288.739013671875,22273,1,1757.0,1768.0,1751.0,1949.0,1757.0,1627.0,1759.0,1594.0,110.60604095458984,-39.77378845214844,-18.40062713623047,Left
2290.739013671875,22273,1,1753.0,1725.0,1317.0,2281.0,1717.0,1749.0,1762.0,1653.0,110.60604095458984,-39.77378845214844,-18.40062713623047,Left
2292.739013671875,22273,1,1763.0,1712.0,1833.0,3403.0,1757.0,1855.0,1765.0,1915.0,110.60604095458984,-39.77378845214844,-18.40062713623047,Left
2294.0419921875,22274,1,1761.0,1765.0,1896.0,2677.0,1789.0,1880.0,1763.0,1775.0,110.60604095458984,-39.77378845214844,-18.40062713623047,Left
2296.0419921875,22274,1,1765.0,1771.0,1695.0,1864.0,1767.0,1855.0,1761.0,1772.0,110.60604095458984,-39.77378845214844,-18.40062713623047,Left
2298.0419921875,22274,1,1764.0,1766.0,1763.0,1397.0,1637.0,1820.0,1759.0,1682.0,110.60604095458984,-39.77378845214844,-18.40062713623047,Left
2300.0419921875,22274,1,1758.0,1755.0,1719.0,1186.0,1764.0,1876.0,1755.0,1837.0,110.60604095458984,-39.77378845214844,-18.40062713623047,Left
2302.0419921875,22274,1,1763.0,1763.0,1821.0,211.0,1771.0,1851.0,1761.0,1791.0,110.60604095458984,-39.77378845214844,-18.40062713623047,Left
2303.4580078125,22275,1,1763.0,1715.0,1797.0,872.0,1740.0,1765.0,1763.0,1765.0,110.60604095458984,-39.77378845214844,-18.40062713623047,Left
2305.4580078125,22275,1,1762.0,1751.0,1623.0,1587.0,1753.0,1695.0,1761.0,1557.0,112.3965835571289,-39.46141052246094,-19.376121520996094,Left
2307.4580078125,22275,1,1763.0,1779.0,1787.0,2057.0,1785.0,1753.0,1756.0,1869.0,112.3965835571289,-39.46141052246094,-19.376121520996094,Left
2309.4580078125,22275,1,1763.0,1802.0,1897.0,2245.0,1790.0,1639.0,1759.0,1767.0,112.3965835571289,-39.46141052246094,-19.376121520996094,Left
2311.4580078125,22275,1,1761.0,1790.0,1671.0,3355.0,1705.0,1709.0,1755.0,1653.0,112.3965835571289,-39.46141052246094,-19.376121520996094,Left
2314.241943359375,22276,1,1766.0,1708.0,1997.0,2728.0,1703.0,1700.0,1763.0,1717.0,112.3965835571289,-39.46141052246094,-19.376121520996094,Left
2316.241943359375,22276,1,1755.0,1839.0,1453.0,2043.0,1805.0,1704.0,1762.0,1655.0,112.3965835571289,-39.46141052246094,-19.376121520996094,Left
2318.241943359375,22276,1,1763.0,1835.0,1891.0,1452.0,1763.0,1683.0,1763.0,1782.0,112.3965835571289,-39.46141052246094,-19.376121520996094,Left
2320.241943359375,22276,1,1759.0,1765.0,1957.0,1178.0,1739.0,1689.0,1762.0,1811.0,112.3965835571289,-39.46141052246094,-19.376121520996094,Left
2322.241943359375,22276,1,1754.0,1655.0,1708.0,219.0,1747.0,1660.0,1761.0,1757.0,112.3965835571289,-39.46141052246094,-19.376121520996094,Left
2323.998046875,22277,1,1759.0,1685.0,1743.0,763.0,1726.0,1685.0,1757.0,1689.0,112.3965835571289,-39.46141052246094,-19.376121520996094,Left
2325.998046875,22277,1,1757.0,1827.0,1661.0,1580.0,1761.0,1670.0,1754.0,1640.0,112.3965835571289,-39.46141052246094,-19.376121520996094,Left
2327.998046875,22277,1,1759.0,1843.0,1695.0,2063.0,1773.0,1657.0,1763.0,1707.0,112.3965835571289,-39.46141052246094,-19.376121520996094,Left
2329.998046875,22277,1,1759.0,1741.0,2149.0,2163.0,1752.0,1725.0,1763.0,1831.0,112.3965835571289,-39.46141052246094,-19.376121520996094,Left
2331.998046875,22277,1,1759.0,1765.0,1791.0,3480.0,1747.0,1783.0,1764.0,1945.0,112.3965835571289,-39.46141052246094,-19.376121520996094,Left
2333.611083984375,22278,1,1759.0,1748.0,1783.0,2911.0,1695.0,1658.0,1763.0,1850.0,112.3965835571289,-39.46141052246094,-19.376121520996094,Left
2335.611083984375,22278,1,1758.0,1783.0,1501.0,2079.0,1811.0,1547.0,1765.0,1501.0,112.3965835571289,-39.46141052246094,-19.376121520996094,Left
2337.611083984375,22278,1,1759.0,1771.0,1775.0,1559.0,1956.0,1628.0,1765.0,1763.0,112.3965835571289,-39.46141052246094,-19.376121520996094,Left
2339.611083984375,22278,1,1755.0,1719.0,1861.0,1362.0,1791.0,1677.0,1763.0,1685.0,112.3965835571289,-39.46141052246094,-19.376121520996094,Left
2341.611083984375,22278,1,1763.0,1688.0,1643.0,303.0,1479.0,1615.0,1758.0,1725.0,112.3965835571289,-39.46141052246094,-19.376121520996094,Left
2344.784912109375,22279,1,1752.0,1789.0,1593.0,764.0,1727.0,1783.0,1756.0,1757.0,112.3965835571289,-39.46141052246094,-19.376121520996094,Left
2346.784912109375,22279,1,1761.0,1853.0,1785.0,1565.0,1787.0,1839.0,1763.0,1758.0,112.3965835571289,-39.46141052246094,-19.376121520996094,Left
2348.784912109375,22279,1,1766.0,1853.0,1798.0,2133.0,1797.0,1818.0,1763.0,1755.0,112.3965835571289,-39.46141052246094,-19.376121520996094,Left
2350.784912109375,22279,1,1753.0,1719.0,1787.0,2285.0,1791.0,1767.0,1759.0,1753.0,112.3965835571289,-39.46141052246094,-19.376121520996094,Left
2352.784912109375,22279,1,1753.0,1579.0,1771.0,3527.0,1543.0,1832.0,1763.0,1743.0,112.3965835571289,-39.46141052246094,-19.376121520996094,Left
2354.35498046875,22280,1,1757.0,1717.0,1771.0,2885.0,1690.0,2023.0,1765.0,1765.0,112.3965835571289,-39.46141052246094,-19.376121520996094,Left
2356.35498046875,22280,1,1757.0,1864.0,1756.0,2029.0,1957.0,1951.0,1763.0,1737.0,112.3965835571289,-39.46141052246094,-19.376121520996094,Left
2358.35498046875,22280,1,1763.0,1909.0,1757.0,1514.0,1915.0,1898.0,1757.0,1757.0,112.3965835571289,-39.46141052246094,-19.376121520996094,Left
2360.35498046875,22280,1,1757.0,1577.0,1765.0,1401.0,1799.0,1861.0,1763.0,1745.0,112.3965835571289,-39.46141052246094,-19.376121520996094,Left
2362.35498046875,22280,1,1763.0,1802.0,1767.0,325.0,1679.0,1801.0,1761.0,1767.0,112.3965835571289,-39.46141052246094,-19.376121520996094,Left
2366.078857421875,22281,1,1757.0,1701.0,1781.0,859.0,1875.0,1791.0,1759.0,1748.0,112.3965835571289,-39.46141052246094,-19.376121520996094,Left
2368.078857421875,22281,1,1753.0,1700.0,1747.0,1547.0,1736.0,1898.0,1764.0,1722.0,112.3965835571289,-39.46141052246094,-19.376121520996094,Left
2370.078857421875,22281,1,1759.0,1767.0,1740.0,2023.0,1486.0,1883.0,1759.0,1737.0,112.3965835571289,-39.46141052246094,-19.376121520996094,Left
2372.078857421875,22281,1,1758.0,1901.0,1771.0,2238.0,1927.0,1676.0,1764.0,1767.0,112.3965835571289,-39.46141052246094,-19.376121520996094,Left
2374.078857421875,22281,1,1763.0,1849.0,1779.0,3384.0,2085.0,1785.0,1764.0,1773.0,113.69506072998047,-39.49116516113281,-18.604768753051758,Left
2375.702880859375,22282,1,1755.0,1599.0,1750.0,2956.0,1235.0,1770.0,1749.0,1721.0,113.69506072998047,-39.49116516113281,-18.604768753051758,Left
2377.702880859375,22282,1,1758.0,1670.0,1727.0,2246.0,1768.0,1677.0,1753.0,1737.0,113.69506072998047,-39.49116516113281,-18.604768753051758,Left
2379.702880859375,22282,1,1759.0,1935.0,1754.0,1773.0,2075.0,1695.0,1763.0,1747.0,113.69506072998047,-39.49116516113281,-18.604768753051758,Left
2381.702880859375,22282,1,1764.0,1951.0,1757.0,1479.0,2023.0,1762.0,1759.0,1757.0,113.69506072998047,-39.49116516113281,-18.604768753051758,Left
2383.702880859375,22282,1,1751.0,1687.0,1725.0,400.0,1395.0,1611.0,1759.0,1743.0,113.69506072998047,-39.49116516113281,-18.604768753051758,Left
2383.869140625,22283,1,1757.0,1443.0,1773.0,915.0,1485.0,1709.0,1753.0,1771.0,113.69506072998047,-39.49116516113281,-18.604768753051758,Left
2385.869140625,22283,1,1764.0,1867.0,1787.0,1769.0,1751.0,1717.0,1763.0,1734.0,113.69506072998047,-39.49116516113281,-18.604768753051758,Left
2387.869140625,22283,1,1763.0,1615.0,1693.0,2415.0,1817.0,1749.0,1758.0,1711.0,113.69506072998047,-39.49116516113281,-18.604768753051758,Left
2389.869140625,22283,1,1758.0,1929.0,1784.0,2517.0,1914.0,1659.0,1759.0,1761.0,113.69506072998047,-39.49116516113281,-18.604768753051758,Left
2391.869140625,22283,1,1758.0,1704.0,1805.0,3806.0,2118.0,1787.0,1762.0,1752.0,113.69506072998047,-39.49116516113281,-18.604768753051758,Left
2393.31396484375,22284,1,1755.0,1723.0,1748.0,3301.0,1351.0,1831.0,1764.0,1751.0,113.69506072998047,-39.49116516113281,-18.604768753051758,Left
2395.31396484375,22284,1,1762.0,1540.0,1750.0,3675.0,1813.0,1717.0,1763.0,1743.0,113.69506072998047,-39.49116516113281,-18.604768753051758,Left
2397.31396484375,22284,1,1762.0,1711.0,1783.0,2914.0,1937.0,1823.0,1753.0,1764.0,113.69506072998047,-39.49116516113281,-18.604768753051758,Left
2399.31396484375,22284,1,1763.0,1925.0,1781.0,2447.0,1783.0,1753.0,1759.0,1763.0,113.69506072998047,-39.49116516113281,-18.604768753051758,Left
2401.31396484375,22284,1,1759.0,1853.0,1721.0,1101.0,1051.0,1606.0,1763.0,1739.0,113.69506072998047,-39.49116516113281,-18.604768753051758,Left
2403.3740234375,22285,1,1761.0,1999.0,1816.0,1319.0,1907.0,1646.0,1762.0,1791.0,113.69506072998047,-39.49116516113281,-18.604768753051758,Left
2405.3740234375,22285,1,1759.0,2003.0,1663.0,1946.0,2181.0,1583.0,1759.0,1647.0,113.69506072998047,-39.49116516113281,-18.604768753051758,Left
2407.3740234375,22285,1,1757.0,1787.0,1706.0,2377.0,2309.0,1618.0,1755.0,1786.0,113.69506072998047,-39.49116516113281,-18.604768753051758,Left
2409.3740234375,22285,1,1754.0,1711.0,1762.0,2863.0,1929.0,1704.0,1762.0,1706.0,113.69506072998047,-39.49116516113281,-18.604768753051758,Left
2411.3740234375,22285,1,1761.0,2151.0,1720.0,3815.0,2072.0,1847.0,1757.0,1783.0,113.69506072998047,-39.49116516113281,-18.604768753051758,Left
2415.89892578125,22286,1,1759.0,1395.0,1780.0,3819.0,1241.0,1823.0,1756.0,1765.0,113.69506072998047,-39.49116516113281,-18.604768753051758,Left
2417.89892578125,22286,1,1761.0,1434.0,1727.0,2869.0,917.0,1685.0,1763.0,1677.0,113.69506072998047,-39.49116516113281,-18.604768753051758,Left
2419.89892578125,22286,1,1753.0,2375.0,1718.0,1235.0,2317.0,1658.0,1763.0,1769.0,113.69506072998047,-39.49116516113281,-18.604768753051758,Left
2421.89892578125,22286,1,1755.0,1402.0,1791.0,285.0,2162.0,1736.0,1759.0,1804.0,113.69506072998047,-39.49116516113281,-18.604768753051758,Left
2423.89892578125,22286,1,1759.0,665.0,1810.0,0.0,1305.0,1717.0,1751.0,1767.0,113.69506072998047,-39.49116516113281,-18.604768753051758,Left
2425.532958984375,22287,1,1762.0,2389.0,1741.0,0.0,1144.0,1553.0,1763.0,1708.0,113.69506072998047,-39.49116516113281,-18.604768753051758,Left
2427.532958984375,22287,1,1751.0,2092.0,1833.0,0.0,1580.0,1579.0,1759.0,1820.0,113.69506072998047,-39.49116516113281,-18.604768753051758,Left
2429.532958984375,22287,1,1759.0,1943.0,1847.0,0.0,1745.0,1604.0,1758.0,1757.0,113.69506072998047,-39.49116516113281,-18.604768753051758,Left
2431.532958984375,22287,1,1752.0,1391.0,1766.0,283.0,2056.0,1685.0,1752.0,1753.0,113.69506072998047,-39.49116516113281,-18.604768753051758,Left
2433.532958984375,22287,1,1763.0,1467.0,1723.0,1341.0,1911.0,1625.0,1763.0,1647.0,113.69506072998047,-39.49116516113281,-18.604768753051758,Left
2435.555908203125,22288,1,1758.0,1484.0,1674.0,1191.0,1775.0,1763.0,1752.0,1723.0,113.69506072998047,-39.49116516113281,-18.604768753051758,Left
2437.555908203125,22288,1,1763.0,2282.0,1786.0,717.0,1788.0,1788.0,1765.0,1733.0,113.69506072998047,-39.49116516113281,-18.604768753051758,Left
2439.555908203125,22288,1,1759.0,2659.0,1700.0,291.0,1897.0,1810.0,1751.0,1753.0,114.88880920410156,-39.83854675292969,-14.736261367797852,Left
2441.555908203125,22288,1,1757.0,1942.0,1816.0,307.0,1919.0,1900.0,1765.0,1876.0,114.88880920410156,-39.83854675292969,-14.736261367797852,Left
2443.555908203125,22288,1,1759.0,675.0,1854.0,0.0,1783.0,1874.0,1755.0,1755.0,114.88880920410156,-39.83854675292969,-14.736261367797852,Left
2448.420166015625,22289,1,1758.0,500.0,1588.0,0.0,1431.0,1671.0,1751.0,1606.0,114.88880920410156,-39.83854675292969,-14.736261367797852,Left
2450.420166015625,22289,1,1757.0,2795.0,1700.0,0.0,2293.0,1687.0,1763.0,1737.0,114.88880920410156,-39.83854675292969,-14.736261367797852,Left
2452.420166015625,22289,1,1757.0,2151.0,1663.0,0.0,1806.0,1735.0,1755.0,1723.0,114.88880920410156,-39.83854675292969,-14.736261367797852,Left
2454.420166015625,22289,1,1763.0,1790.0,1781.0,0.0,1243.0,1771.0,1757.0,1815.0,114.88880920410156,-39.83854675292969,-14.736261367797852,Left
2456.420166015625,22289,1,1763.0,1839.0,1812.0,72.0,1417.0,1703.0,1765.0,1765.0,114.88880920410156,-39.83854675292969,-14.736261367797852,Left
2454.9150390625,22290,1,1756.0,1832.0,1660.0,1059.0,2029.0,1780.0,1749.0,1743.0,114.88880920410156,-39.83854675292969,-14.736261367797852,Left
2456.9150390625,22290,1,1757.0,1308.0,1764.0,1323.0,2474.0,1659.0,1763.0,1721.0,114.88880920410156,-39.83854675292969,-14.736261367797852,Left
2458.9150390625,22290,1,1763.0,1817.0,1755.0,1583.0,1717.0,1695.0,1763.0,1677.0,114.88880920410156,-39.83854675292969,-14.736261367797852,Left
2460.9150390625,22290,1,1753.0,2263.0,1763.0,1932.0,1567.0,1897.0,1765.0,1763.0,114.88880920410156,-39.83854675292969,-14.736261367797852,Left
2462.9150390625,22290,1,1764.0,1415.0,1874.0,1639.0,1048.0,1915.0,1758.0,1779.0,114.88880920410156,-39.83854675292969,-14.736261367797852,Left
2464.657958984375,22291,1,1757.0,1768.0,1823.0,2006.0,1624.0,1822.0,1759.0,1727.0,114.88880920410156,-39.83854675292969,-14.736261367797852,Left
2466.657958984375,22291,1,1758.0,2026.0,1513.0,2941.0,2251.0,1903.0,1759.0,1719.0,114.88880920410156,-39.83854675292969,-14.736261367797852,Left
2468.657958984375,22291,1,1758.0,1979.0,1708.0,3823.0,1447.0,1982.0,1763.0,1737.0,114.88880920410156,-39.83854675292969,-14.736261367797852,Left
2470.657958984375,22291,1,1763.0,1592.0,1799.0,3815.0,2022.0,2089.0,1759.0,1687.0,114.88880920410156,-39.83854675292969,-14.736261367797852,Left
2472.657958984375,22291,1,1758.0,1039.0,1739.0,3815.0,2099.0,1931.0,1764.0,1739.0,114.88880920410156,-39.83854675292969,-14.736261367797852,Left
2473.5400390625,22292,1,1758.0,2019.0,1811.0,3806.0,2029.0,1891.0,1749.0,1771.0,114.88880920410156,-39.83854675292969,-14.736261367797852,Left
2475.5400390625,22292,1,1764.0,1861.0,1883.0,3815.0,1402.0,1819.0,1763.0,1835.0,114.88880920410156,-39.83854675292969,-14.736261367797852,Left
2477.5400390625,22292,1,1759.0,2024.0,1789.0,3815.0,806.0,1771.0,1754.0,1783.0,114.88880920410156,-39.83854675292969,-14.736261367797852,Left
2479.5400390625,22292,1,1762.0,1677.0,1804.0,3795.0,2239.0,1757.0,1755.0,1817.0,114.88880920410156,-39.83854675292969,-14.736261367797852,Left
2481.5400390625,22292,1,1763.0,2149.0,1707.0,3817.0,1833.0,1625.0,1757.0,1643.0,114.88880920410156,-39.83854675292969,-14.736261367797852,Left
2483.69189453125,22293,1,1757.0,1695.0,1775.0,3815.0,1951.0,1723.0,1753.0,1773.0,114.88880920410156,-39.83854675292969,-14.736261367797852,Left
2485.69189453125,22293,1,1759.0,2221.0,1775.0,3813.0,1960.0,2107.0,1755.0,1775.0,114.88880920410156,-39.83854675292969,-14.736261367797852,Left
2487.69189453125,22293,1,1754.0,1215.0,1675.0,3817.0,1708.0,2487.0,1763.0,1671.0,114.88880920410156,-39.83854675292969,-14.736261367797852,Left
2489.69189453125,22293,1,1751.0,1279.0,1721.0,3814.0,2207.0,2456.0,1753.0,1819.0,114.88880920410156,-39.83854675292969,-14.736261367797852,Left
2491.69189453125,22293,1,1759.0,1819.0,1781.0,3805.0,2267.0,2267.0,1755.0,1753.0,114.88880920410156,-39.83854675292969,-14.736261367797852,Left
2495.866943359375,22294,1,1757.0,2188.0,1815.0,3815.0,1773.0,2235.0,1756.0,1256.0,114.88880920410156,-39.83854675292969,-14.736261367797852,Left
2497.866943359375,22294,1,1756.0,1544.0,1717.0,3819.0,1176.0,2110.0,1763.0,0.0,114.88880920410156,-39.83854675292969,-14.736261367797852,Left
2499.866943359375,22294,1,1763.0,1515.0,1767.0,2261.0,1493.0,1925.0,1763.0,0.0,114.88880920410156,-39.83854675292969,-14.736261367797852,Left
2501.866943359375,22294,1,1758.0,1955.0,1678.0,814.0,1449.0,1788.0,1755.0,0.0,117.15834045410156,-40.55662536621094,-12.38780689239502,Left
2503.866943359375,22294,1,1755.0,1275.0,1929.0,0.0,1706.0,1594.0,1763.0,0.0,117.15834045410156,-40.55662536621094,-12.38780689239502,Left
2505.385009765625,22295,1,1763.0,2147.0,1763.0,0.0,2132.0,1467.0,1752.0,0.0,117.15834045410156,-40.55662536621094,-12.38780689239502,Left
2507.385009765625,22295,1,1763.0,1773.0,1669.0,0.0,1885.0,1427.0,1754.0,0.0,117.15834045410156,-40.55662536621094,-12.38780689239502,Left
2509.385009765625,22295,1,1752.0,1893.0,1734.0,0.0,1577.0,1299.0,1766.0,0.0,117.15834045410156,-40.55662536621094,-12.38780689239502,Left
2511.385009765625,22295,1,1755.0,1869.0,1759.0,0.0,1763.0,1291.0,1763.0,0.0,117.15834045410156,-40.55662536621094,-12.38780689239502,Left
2513.385009765625,22295,1,1764.0,1243.0,1709.0,69.0,1965.0,1335.0,1767.0,0.0,117.15834045410156,-40.55662536621094,-12.38780689239502,Left
2514.18798828125,22296,1,1759.0,1883.0,1743.0,181.0,2063.0,1391.0,1753.0,0.0,117.15834045410156,-40.55662536621094,-12.38780689239502,Left
2516.18798828125,22296,1,1751.0,1881.0,1842.0,273.0,2005.0,1327.0,1757.0,0.0,117.15834045410156,-40.55662536621094,-12.38780689239502,Left
2518.18798828125,22296,1,1763.0,1998.0,1789.0,403.0,1395.0,1419.0,1763.0,0.0,117.15834045410156,-40.55662536621094,-12.38780689239502,Left
2520.18798828125,22296,1,1757.0,1464.0,1711.0,311.0,1435.0,1479.0,1763.0,0.0,117.15834045410156,-40.55662536621094,-12.38780689239502,Left
2522.18798828125,22296,1,1759.0,2001.0,1749.0,441.0,2108.0,1447.0,1758.0,0.0,117.15834045410156,-40.55662536621094,-12.38780689239502,Left
2524.9990234375,22297,1,1753.0,1548.0,1735.0,472.0,968.0,1385.0,1763.0,55.0,117.15834045410156,-40.55662536621094,-12.38780689239502,Left
2526.9990234375,22297,1,1759.0,1302.0,1791.0,1189.0,2021.0,1365.0,1763.0,307.0,117.15834045410156,-40.55662536621094,-12.38780689239502,Left
2528.9990234375,22297,1,1759.0,2066.0,1839.0,1315.0,1913.0,1455.0,1767.0,535.0,117.15834045410156,-40.55662536621094,-12.38780689239502,Left
2530.9990234375,22297,1,1753.0,1821.0,1759.0,1263.0,1169.0,1490.0,1764.0,731.0,117.15834045410156,-40.55662536621094,-12.38780689239502,Left
2532.9990234375,22297,1,1757.0,1767.0,1845.0,1389.0,1866.0,1683.0,1754.0,887.0,117.15834045410156,-40.55662536621094,-12.38780689239502,Left
2533.870849609375,22298,1,1755.0,1703.0,1734.0,1741.0,2421.0,1864.0,1753.0,1016.0,117.15834045410156,-40.55662536621094,-12.38780689239502,Left
2535.870849609375,22298,1,1763.0,1449.0,1847.0,1844.0,1640.0,1875.0,1766.0,1141.0,117.15834045410156,-40.55662536621094,-12.38780689239502,Left
2537.870849609375,22298,1,1758.0,2141.0,1429.0,1672.0,1827.0,1897.0,1761.0,1229.0,117.15834045410156,-40.55662536621094,-12.38780689239502,Left
2539.870849609375,22298,1,1757.0,1877.0,1725.0,1589.0,2095.0,1959.0,1765.0,1303.0,117.15834045410156,-40.55662536621094,-12.38780689239502,Left
2541.870849609375,22298,1,1755.0,1807.0,1772.0,1580.0,1501.0,1814.0,1757.0,1373.0,117.15834045410156,-40.55662536621094,-12.38780689239502,Left
2544.453125,22299,1,1758.0,1707.0,1818.0,1511.0,1733.0,1711.0,1766.0,1437.0,117.15834045410156,-40.55662536621094,-12.38780689239502,Left
2546.453125,22299,1,1763.0,1771.0,1819.0,1445.0,2251.0,1746.0,1764.0,1469.0,117.15834045410156,-40.55662536621094,-12.38780689239502,Left
2548.453125,22299,1,1759.0,2035.0,1718.0,2937.0,1191.0,1843.0,1764.0,1518.0,117.15834045410156,-40.55662536621094,-12.38780689239502,Left
2550.453125,22299,1,1750.0,1158.0,1751.0,2104.0,1541.0,1723.0,1753.0,1560.0,117.15834045410156,-40.55662536621094,-12.38780689239502,Left
2552.453125,22299,1,1755.0,1781.0,1843.0,1999.0,1959.0,1832.0,1767.0,1581.0,117.15834045410156,-40.55662536621094,-12.38780689239502,Left
2556.47900390625,22300,1,1753.0,1931.0,1853.0,1506.0,1685.0,1763.0,1759.0,1599.0,117.15834045410156,-40.55662536621094,-12.38780689239502,Left
2558.47900390625,22300,1,1755.0,1640.0,1838.0,1161.0,1736.0,1747.0,1763.0,1621.0,117.15834045410156,-40.55662536621094,-12.38780689239502,Left
2560.47900390625,22300,1,1755.0,1661.0,1661.0,957.0,1903.0,1845.0,1767.0,1642.0,117.15834045410156,-40.55662536621094,-12.38780689239502,Left
2562.47900390625,22300,1,1759.0,1660.0,1630.0,699.0,2103.0,1810.0,1755.0,1651.0,117.15834045410156,-40.55662536621094,-12.38780689239502,Left
2564.47900390625,22300,1,1763.0,1463.0,1653.0,711.0,1681.0,1775.0,1757.0,1670.0,117.15834045410156,-40.55662536621094,-12.38780689239502,Left
2564.4208984375,22301,1,1757.0,2193.0,1917.0,892.0,1881.0,1869.0,1753.0,1679.0,117.15834045410156,-40.55662536621094,-12.38780689239502,Left
2566.4208984375,22301,1,1758.0,1427.0,1704.0,921.0,1651.0,1895.0,1752.0,1688.0,114.42399597167969,-38.45058059692383,5.397558689117432,Left
2568.4208984375,22301,1,1763.0,1837.0,1783.0,1083.0,1779.0,1965.0,1764.0,1689.0,114.42399597167969,-38.45058059692383,5.397558689117432,Left
2570.4208984375,22301,1,1759.0,1638.0,1811.0,1125.0,1997.0,1932.0,1765.0,1702.0,114.42399597167969,-38.45058059692383,5.397558689117432,Left
2572.4208984375,22301,1,1759.0,1950.0,1753.0,1378.0,1812.0,2072.0,1767.0,1706.0,114.42399597167969,-38.45058059692383,5.397558689117432,Left
2575.1298828125,22302,1,1761.0,1710.0,1689.0,1435.0,1289.0,2153.0,1759.0,1709.0,114.42399597167969,-38.45058059692383,5.397558689117432,Left
2577.1298828125,22302,1,1759.0,1919.0,1836.0,1323.0,1919.0,1956.0,1763.0,1715.0,114.42399597167969,-38.45058059692383,5.397558689117432,Left
2579.1298828125,22302,1,1759.0,2143.0,1821.0,1491.0,1955.0,1869.0,1765.0,1717.0,114.42399597167969,-38.45058059692383,5.397558689117432,Left
2581.1298828125,22302,1,1763.0,1259.0,1785.0,1340.0,1693.0,1828.0,1763.0,1720.0,114.42399597167969,-38.45058059692383,5.397558689117432,Left
2583.1298828125,22302,1,1765.0,1909.0,1769.0,1336.0,1763.0,1607.0,1764.0,1723.0,114.42399597167969,-38.45058059692383,5.397558689117432,Left
2584.876953125,22303,1,1759.0,2110.0,1771.0,1420.0,1701.0,1571.0,1752.0,1707.0,114.42399597167969,-38.45058059692383,5.397558689117432,Left
2586.876953125,22303,1,1748.0,1053.0,1805.0,1683.0,1755.0,1560.0,1759.0,1725.0,114.42399597167969,-38.45058059692383,5.397558689117432,Left
2588.876953125,22303,1,1757.0,2126.0,1763.0,1875.0,1929.0,1612.0,1762.0,1722.0,114.42399597167969,-38.45058059692383,5.397558689117432,Left
2590.876953125,22303,1,1759.0,1404.0,1705.0,1893.0,1582.0,1690.0,1764.0,1733.0,114.42399597167969,-38.45058059692383,5.397558689117432,Left
2592.876953125,22303,1,1763.0,1567.0,1600.0,1963.0,1699.0,1747.0,1755.0,1733.0,114.42399597167969,-38.45058059692383,5.397558689117432,Left
2594.862060546875,22304,1,1763.0,1597.0,1777.0,2141.0,1865.0,1832.0,1765.0,1725.0,114.42399597167969,-38.45058059692383,5.397558689117432,Left
2596.862060546875,22304,1,1759.0,1849.0,1804.0,2063.0,1867.0,1855.0,1761.0,1725.0,114.42399597167969,-38.45058059692383,5.397558689117432,Left
2598.862060546875,22304,1,1755.0,1691.0,1807.0,1883.0,1432.0,1931.0,1759.0,1736.0,114.42399597167969,-38.45058059692383,5.397558689117432,Left
2600.862060546875,22304,1,1757.0,1955.0,1691.0,1838.0,1445.0,1896.0,1763.0,1739.0,114.42399597167969,-38.45058059692383,5.397558689117432,Left
2602.862060546875,22304,1,1752.0,1708.0,1785.0,2075.0,1625.0,1767.0,1763.0,1738.0,114.42399597167969,-38.45058059692383,5.397558689117432,Left
2603.656982421875,22305,1,1759.0,1981.0,1740.0,2805.0,1679.0,1641.0,1757.0,1741.0,114.42399597167969,-38.45058059692383,5.397558689117432,Left
2605.656982421875,22305,1,1763.0,1619.0,1836.0,2411.0,1978.0,1691.0,1756.0,1738.0,114.42399597167969,-38.45058059692383,5.397558689117432,Left
2607.656982421875,22305,1,1759.0,1899.0,1806.0,1983.0,1657.0,1785.0,1755.0,1727.0,114.42399597167969,-38.45058059692383,5.397558689117432,Left
2609.656982421875,22305,1,1759.0,1781.0,1720.0,1707.0,1946.0,1791.0,1758.0,1739.0,114.42399597167969,-38.45058059692383,5.397558689117432,Left
2611.656982421875,22305,1,1763.0,1749.0,1783.0,1997.0,1511.0,1780.0,1763.0,1741.0,114.42399597167969,-38.45058059692383,5.397558689117432,Left
2615.965087890625,22306,1,1757.0,1779.0,1754.0,1769.0,2039.0,1887.0,1753.0,1735.0,114.42399597167969,-38.45058059692383,5.397558689117432,Left
2617.965087890625,22306,1,1752.0,1509.0,1740.0,1323.0,1684.0,1719.0,1763.0,1737.0,114.42399597167969,-38.45058059692383,5.397558689117432,Left
2619.965087890625,22306,1,1757.0,1619.0,1747.0,1128.0,1797.0,1747.0,1755.0,1736.0,114.42399597167969,-38.45058059692383,5.397558689117432,Left
2621.965087890625,22306,1,1755.0,1912.0,1819.0,1199.0,1950.0,1811.0,1763.0,1741.0,114.42399597167969,-38.45058059692383,5.397558689117432,Left
2623.965087890625,22306,1,1763.0,1754.0,1791.0,1087.0,1711.0,1621.0,1758.0,1742.0,114.42399597167969,-38.45058059692383,5.397558689117432,Left
2623.89013671875,22307,1,1757.0,1901.0,1771.0,1233.0,1801.0,1545.0,1752.0,1735.0,114.42399597167969,-38.45058059692383,5.397558689117432,Left
2625.89013671875,22307,1,1757.0,1672.0,1723.0,1641.0,1695.0,1635.0,1764.0,1746.0,114.42399597167969,-38.45058059692383,5.397558689117432,Left
2627.89013671875,22307,1,1759.0,1813.0,1782.0,1847.0,1835.0,1663.0,1755.0,1743.0,114.42399597167969,-38.45058059692383,5.397558689117432,Left
2629.89013671875,22307,1,1762.0,1573.0,1775.0,1972.0,1515.0,1717.0,1763.0,1745.0,114.42399597167969,-38.45058059692383,5.397558689117432,Left
2631.89013671875,22307,1,1755.0,1711.0,1863.0,2277.0,1752.0,1816.0,1765.0,1742.0,112.72452545166016,-30.778522491455078,19.135643005371094,Left
2633.551025390625,22308,1,1758.0,1427.0,1783.0,2251.0,1749.0,1887.0,1765.0,1740.0,112.72452545166016,-30.778522491455078,19.135643005371094,Left
2635.551025390625,22308,1,1755.0,1816.0,1611.0,1944.0,2331.0,1779.0,1755.0,1735.0,112.72452545166016,-30.778522491455078,19.135643005371094,Left
2637.551025390625,22308,1,1754.0,1791.0,1727.0,1767.0,1013.0,1765.0,1764.0,1741.0,112.72452545166016,-30.778522491455078,19.135643005371094,Left
2639.551025390625,22308,1,1762.0,1785.0,1827.0,1701.0,1935.0,1637.0,1764.0,1741.0,112.72452545166016,-30.778522491455078,19.135643005371094,Left
2641.551025390625,22308,1,1763.0,1879.0,1864.0,1562.0,1868.0,1517.0,1763.0,1738.0,112.72452545166016,-30.778522491455078,19.135643005371094,Left
2664.617919921875,22309,1,1763.0,1683.0,1853.0,1416.0,1787.0,1407.0,1757.0,1747.0,112.72452545166016,-30.778522491455078,19.135643005371094,Left
2666.617919921875,22309,1,1756.0,1835.0,1749.0,1837.0,1893.0,1450.0,1763.0,1747.0,112.72452545166016,-30.778522491455078,19.135643005371094,Left
2668.617919921875,22309,1,1759.0,1805.0,1823.0,2043.0,1701.0,1559.0,1764.0,1743.0,112.72452545166016,-30.778522491455078,19.135643005371094,Left
2670.617919921875,22309,1,1754.0,1531.0,1593.0,1783.0,1787.0,1529.0,1759.0,1745.0,112.72452545166016,-30.778522491455078,19.135643005371094,Left
2672.617919921875,22309,1,1758.0,1653.0,1707.0,2052.0,1419.0,1701.0,1765.0,1746.0,112.72452545166016,-30.778522491455078,19.135643005371094,Left
2665.10302734375,22310,1,1759.0,1930.0,1577.0,2249.0,1709.0,1785.0,1751.0,1735.0,112.72452545166016,-30.778522491455078,19.135643005371094,Left
2667.10302734375,22310,1,1763.0,1854.0,1590.0,1791.0,2295.0,1749.0,1765.0,1747.0,112.72452545166016,-30.778522491455078,19.135643005371094,Left
2669.10302734375,22310,1,1763.0,1983.0,1852.0,1383.0,1045.0,1639.0,1763.0,1743.0,112.72452545166016,-30.778522491455078,19.135643005371094,Left
2671.10302734375,22310,1,1758.0,1907.0,1941.0,1253.0,1700.0,1591.0,1757.0,1747.0,112.72452545166016,-30.778522491455078,19.135643005371094,Left
2673.10302734375,22310,1,1763.0,2173.0,1811.0,1054.0,2126.0,1543.0,1759.0,1742.0,112.72452545166016,-30.778522491455078,19.135643005371094,Left
2665.760009765625,22311,1,1759.0,1929.0,1834.0,874.0,1486.0,1511.0,1757.0,1735.0,112.72452545166016,-30.778522491455078,19.135643005371094,Left
2667.760009765625,22311,1,1757.0,1772.0,1845.0,1459.0,1688.0,1570.0,1763.0,1747.0,112.72452545166016,-30.778522491455078,19.135643005371094,Left
2669.760009765625,22311,1,1753.0,1960.0,1839.0,1823.0,2283.0,1719.0,1764.0,1743.0,112.72452545166016,-30.778522491455078,19.135643005371094,Left
2671.760009765625,22311,1,1763.0,1645.0,1775.0,1791.0,1307.0,1871.0,1763.0,1747.0,112.72452545166016,-30.778522491455078,19.135643005371094,Left
2673.760009765625,22311,1,1757.0,2063.0,1687.0,2075.0,1829.0,2089.0,1763.0,1747.0,112.72452545166016,-30.778522491455078,19.135643005371094,Left
2674.14501953125,22312,1,1756.0,2014.0,1791.0,2441.0,2014.0,2120.0,1765.0,1737.0,112.72452545166016,-30.778522491455078,19.135643005371094,Left
2676.14501953125,22312,1,1763.0,1781.0,1750.0,1820.0,1383.0,2019.0,1763.0,1747.0,112.72452545166016,-30.778522491455078,19.135643005371094,Left
2678.14501953125,22312,1,1762.0,1751.0,1785.0,1349.0,1815.0,1931.0,1753.0,1739.0,112.72452545166016,-30.778522491455078,19.135643005371094,Left
2680.14501953125,22312,1,1762.0,1656.0,1619.0,1332.0,1568.0,1817.0,1757.0,1738.0,112.72452545166016,-30.778522491455078,19.135643005371094,Left
2682.14501953125,22312,1,1753.0,2040.0,1692.0,1299.0,1925.0,1763.0,1762.0,1737.0,112.72452545166016,-30.778522491455078,19.135643005371094,Left
2685.85986328125,22313,1,1759.0,1705.0,1775.0,1033.0,1773.0,1633.0,1763.0,1737.0,112.72452545166016,-30.778522491455078,19.135643005371094,Left
2687.85986328125,22313,1,1757.0,1941.0,1755.0,1624.0,1797.0,1743.0,1763.0,1747.0,112.72452545166016,-30.778522491455078,19.135643005371094,Left
2689.85986328125,22313,1,1755.0,1901.0,1757.0,1971.0,1695.0,1801.0,1759.0,1740.0,112.72452545166016,-30.778522491455078,19.135643005371094,Left
2691.85986328125,22313,1,1759.0,1385.0,1742.0,2057.0,1468.0,1883.0,1755.0,1739.0,112.72452545166016,-30.778522491455078,19.135643005371094,Left
2693.85986328125,22313,1,1754.0,1927.0,1756.0,2309.0,1924.0,1975.0,1756.0,1743.0,112.72452545166016,-30.778522491455078,19.135643005371094,Left
2695.010009765625,22314,1,1759.0,1779.0,1766.0,2556.0,1735.0,2079.0,1759.0,1741.0,112.72452545166016,-30.778522491455078,19.135643005371094,Left
2697.010009765625,22314,1,1756.0,1688.0,1747.0,1972.0,1591.0,1981.0,1765.0,1743.0,110.27560424804688,-30.152873992919922,22.098373413085938,Left
2699.010009765625,22314,1,1757.0,1909.0,1756.0,1609.0,2381.0,1901.0,1763.0,1747.0,110.27560424804688,-30.152873992919922,22.098373413085938,Left
2701.010009765625,22314,1,1757.0,1148.0,1691.0,1404.0,857.0,1838.0,1759.0,1747.0,110.27560424804688,-30.152873992919922,22.098373413085938,Left
2703.010009765625,22314,1,1754.0,2044.0,1747.0,1169.0,1897.0,1579.0,1759.0,1745.0,110.27560424804688,-30.152873992919922,22.098373413085938,Left
2705.381103515625,22315,1,1762.0,2091.0,1767.0,813.0,1839.0,1445.0,1749.0,1734.0,110.27560424804688,-30.152873992919922,22.098373413085938,Left
2707.381103515625,22315,1,1751.0,1605.0,1821.0,1469.0,1576.0,1513.0,1759.0,1747.0,110.27560424804688,-30.152873992919922,22.098373413085938,Left
2709.381103515625,22315,1,1763.0,1817.0,1820.0,1995.0,1639.0,1681.0,1762.0,1749.0,110.27560424804688,-30.152873992919922,22.098373413085938,Left
2711.381103515625,22315,1,1759.0,1645.0,1717.0,2199.0,1833.0,1739.0,1763.0,1741.0,110.27560424804688,-30.152873992919922,22.098373413085938,Left
2713.381103515625,22315,1,1763.0,1785.0,1767.0,2348.0,1896.0,1863.0,1764.0,1747.0,110.27560424804688,-30.152873992919922,22.098373413085938,Left
2715.710205078125,22316,1,1763.0,1803.0,1719.0,2789.0,1657.0,1971.0,1756.0,1745.0,110.27560424804688,-30.152873992919922,22.098373413085938,Left
2717.710205078125,22316,1,1756.0,1460.0,1775.0,2119.0,1761.0,1875.0,1757.0,1743.0,110.27560424804688,-30.152873992919922,22.098373413085938,Left
2719.710205078125,22316,1,1757.0,1687.0,1720.0,1727.0,1663.0,1757.0,1763.0,1844.0,110.27560424804688,-30.152873992919922,22.098373413085938,Left
2721.710205078125,22316,1,1763.0,2031.0,1844.0,1590.0,1738.0,1629.0,1762.0,1741.0,110.27560424804688,-30.152873992919922,22.098373413085938,Left
2723.710205078125,22316,1,1762.0,1489.0,1883.0,1532.0,1659.0,1541.0,1762.0,1749.0,110.27560424804688,-30.152873992919922,22.098373413085938,Left
2725.22900390625,22317,1,1757.0,1929.0,1707.0,1178.0,1805.0,1435.0,1757.0,1723.0,110.27560424804688,-30.152873992919922,22.098373413085938,Left
2727.22900390625,22317,1,1749.0,1479.0,1571.0,1655.0,1812.0,1454.0,1757.0,1993.0,110.27560424804688,-30.152873992919922,22.098373413085938,Left
2729.22900390625,22317,1,1765.0,1958.0,1555.0,1993.0,1885.0,1515.0,1759.0,2107.0,110.27560424804688,-30.152873992919922,22.098373413085938,Left
2731.22900390625,22317,1,1755.0,1669.0,1755.0,2254.0,1431.0,1699.0,1763.0,2181.0,110.27560424804688,-30.152873992919922,22.098373413085938,Left
2733.22900390625,22317,1,1763.0,1865.0,1753.0,2599.0,2116.0,1763.0,1765.0,2266.0,110.27560424804688,-30.152873992919922,22.098373413085938,Left
2734.35986328125,22318,1,1753.0,1621.0,1799.0,3006.0,1611.0,2005.0,1747.0,2213.0,110.27560424804688,-30.152873992919922,22.098373413085938,Left
2736.35986328125,22318,1,1753.0,2111.0,1932.0,2413.0,2154.0,2019.0,1755.0,2057.0,110.27560424804688,-30.152873992919922,22.098373413085938,Left
2738.35986328125,22318,1,1759.0,1811.0,1851.0,1935.0,1367.0,1907.0,1755.0,1817.0,110.27560424804688,-30.152873992919922,22.098373413085938,Left
2740.35986328125,22318,1,1756.0,1631.0,1863.0,1603.0,1496.0,1803.0,1758.0,1763.0,110.27560424804688,-30.152873992919922,22.098373413085938,Left
2742.35986328125,22318,1,1753.0,1583.0,1693.0,1611.0,1735.0,1701.0,1757.0,1517.0,110.27560424804688,-30.152873992919922,22.098373413085938,Left
2744.794189453125,22319,1,1763.0,1629.0,1701.0,1278.0,2037.0,1591.0,1756.0,1628.0,110.27560424804688,-30.152873992919922,22.098373413085938,Left
2746.794189453125,22319,1,1757.0,1942.0,1724.0,1705.0,1641.0,1577.0,1761.0,1687.0,110.27560424804688,-30.152873992919922,22.098373413085938,Left
2748.794189453125,22319,1,1759.0,1726.0,1653.0,1991.0,1843.0,1772.0,1762.0,1739.0,110.27560424804688,-30.152873992919922,22.098373413085938,Left
2750.794189453125,22319,1,1757.0,2072.0,1691.0,2031.0,2063.0,1849.0,1761.0,1869.0,110.27560424804688,-30.152873992919922,22.098373413085938,Left
2752.794189453125,22319,1,1757.0,1919.0,1769.0,2055.0,1745.0,1879.0,1763.0,2019.0,110.27560424804688,-30.152873992919922,22.098373413085938,Left
2754.248779296875,22320,1,1756.0,1663.0,1735.0,2366.0,1033.0,2045.0,1753.0,2139.0,110.27560424804688,-30.152873992919922,22.098373413085938,Left
2756.248779296875,22320,1,1753.0,1896.0,1806.0,1916.0,1787.0,2069.0,1765.0,1991.0,110.27560424804688,-30.152873992919922,22.098373413085938,Left
2758.248779296875,22320,1,1757.0,1877.0,1837.0,1593.0,1801.0,2025.0,1756.0,1967.0,110.27560424804688,-30.152873992919922,22.098373413085938,Left
2760.248779296875,22320,1,1757.0,1739.0,1827.0,1463.0,1831.0,1829.0,1762.0,1682.0,112.03981018066406,-30.65318489074707,21.163896560668945,Left
2762.248779296875,22320,1,1755.0,1845.0,1769.0,1528.0,1815.0,1753.0,1757.0,1779.0,112.03981018066406,-30.65318489074707,21.163896560668945,Left
2763.92919921875,22321,1,1756.0,1739.0,1723.0,1106.0,1541.0,1591.0,1758.0,1971.0,112.03981018066406,-30.65318489074707,21.163896560668945,Left
2765.92919921875,22321,1,1756.0,1880.0,1754.0,1367.0,1711.0,1693.0,1758.0,2191.0,112.03981018066406,-30.65318489074707,21.163896560668945,Left
2767.92919921875,22321,1,1754.0,1817.0,1786.0,1737.0,1880.0,1705.0,1763.0,2315.0,112.03981018066406,-30.65318489074707,21.163896560668945,Left
2769.92919921875,22321,1,1753.0,1599.0,1759.0,1926.0,1801.0,1816.0,1765.0,2517.0,112.03981018066406,-30.65318489074707,21.163896560668945,Left
2771.92919921875,22321,1,1757.0,1838.0,1707.0,1957.0,1837.0,1933.0,1764.0,2472.0,112.03981018066406,-30.65318489074707,21.163896560668945,Left
2773.762939453125,22322,1,1756.0,1811.0,1619.0,2294.0,1703.0,2023.0,1759.0,2489.0,112.03981018066406,-30.65318489074707,21.163896560668945,Left
2775.762939453125,22322,1,1759.0,1726.0,1725.0,1855.0,1717.0,1959.0,1755.0,2427.0,112.03981018066406,-30.65318489074707,21.163896560668945,Left
2777.762939453125,22322,1,1756.0,1817.0,1757.0,1563.0,1643.0,1776.0,1763.0,2309.0,112.03981018066406,-30.65318489074707,21.163896560668945,Left
2779.762939453125,22322,1,1764.0,1691.0,1802.0,1481.0,1802.0,1612.0,1757.0,2249.0,112.03981018066406,-30.65318489074707,21.163896560668945,Left
2781.762939453125,22322,1,1757.0,1455.0,1754.0,1565.0,1883.0,1557.0,1765.0,2357.0,112.03981018066406,-30.65318489074707,21.163896560668945,Left
2783.528076171875,22323,1,1763.0,1651.0,1749.0,1227.0,1619.0,1431.0,1759.0,2065.0,112.03981018066406,-30.65318489074707,21.163896560668945,Left
2785.528076171875,22323,1,1763.0,2026.0,1791.0,1609.0,1655.0,1449.0,1757.0,1972.0,112.03981018066406,-30.65318489074707,21.163896560668945,Left
2787.528076171875,22323,1,1754.0,1733.0,1751.0,1965.0,1929.0,1612.0,1757.0,2117.0,112.03981018066406,-30.65318489074707,21.163896560668945,Left
2789.528076171875,22323,1,1753.0,1773.0,1767.0,1977.0,1918.0,1770.0,1757.0,2207.0,112.03981018066406,-30.65318489074707,21.163896560668945,Left
2791.528076171875,22323,1,1755.0,1769.0,1823.0,2031.0,1749.0,1853.0,1766.0,2215.0,112.03981018066406,-30.65318489074707,21.163896560668945,Left
2803.43115234375,22324,1,1757.0,2101.0,1759.0,2284.0,1863.0,2007.0,1765.0,2429.0,112.03981018066406,-30.65318489074707,21.163896560668945,Left
2805.43115234375,22324,1,1757.0,1723.0,1739.0,1832.0,1789.0,2007.0,1759.0,2329.0,112.03981018066406,-30.65318489074707,21.163896560668945,Left
2807.43115234375,22324,1,1757.0,1450.0,1739.0,1592.0,1703.0,1839.0,1763.0,2065.0,112.03981018066406,-30.65318489074707,21.163896560668945,Left
2809.43115234375,22324,1,1754.0,2170.0,1690.0,1531.0,1887.0,1747.0,1751.0,1916.0,112.03981018066406,-30.65318489074707,21.163896560668945,Left
2811.43115234375,22324,1,1763.0,1435.0,1762.0,1555.0,1869.0,1577.0,1763.0,1940.0,112.03981018066406,-30.65318489074707,21.163896560668945,Left
2803.925048828125,22325,1,1751.0,2005.0,1823.0,1311.0,1747.0,1466.0,1753.0,1945.0,112.03981018066406,-30.65318489074707,21.163896560668945,Left
2805.925048828125,22325,1,1759.0,1462.0,1855.0,1579.0,1721.0,1448.0,1751.0,1991.0,112.03981018066406,-30.65318489074707,21.163896560668945,Left
2807.925048828125,22325,1,1759.0,2089.0,1718.0,1765.0,1595.0,1561.0,1763.0,2069.0,112.03981018066406,-30.65318489074707,21.163896560668945,Left
2809.925048828125,22325,1,1757.0,1656.0,1555.0,1899.0,1631.0,1660.0,1753.0,2255.0,112.03981018066406,-30.65318489074707,21.163896560668945,Left
2811.925048828125,22325,1,1755.0,1849.0,1693.0,1933.0,1850.0,1693.0,1758.0,2377.0,112.03981018066406,-30.65318489074707,21.163896560668945,Left
2814.82470703125,22326,1,1751.0,1863.0,1704.0,2151.0,1861.0,1915.0,1754.0,2415.0,112.03981018066406,-30.65318489074707,21.163896560668945,Left
2816.82470703125,22326,1,1763.0,1753.0,1758.0,1864.0,1599.0,1821.0,1763.0,2486.0,112.03981018066406,-30.65318489074707,21.163896560668945,Left
2818.82470703125,22326,1,1762.0,1466.0,1771.0,1575.0,1567.0,1671.0,1763.0,2329.0,112.03981018066406,-30.65318489074707,21.163896560668945,Left
2820.82470703125,22326,1,1754.0,1773.0,1785.0,1572.0,1852.0,1611.0,1764.0,2140.0,112.03981018066406,-30.65318489074707,21.163896560668945,Left
2822.82470703125,22326,1,1758.0,1789.0,1757.0,1583.0,1877.0,1587.0,1764.0,2095.0,112.03981018066406,-30.65318489074707,21.163896560668945,Left
2823.614013671875,22327,1,1762.0,1762.0,1811.0,1263.0,1737.0,1342.0,1759.0,1875.0,114.0876693725586,-30.943044662475586,20.951101303100586,Left
2825.614013671875,22327,1,1752.0,1900.0,1801.0,1557.0,1722.0,1397.0,1753.0,1883.0,114.0876693725586,-30.943044662475586,20.951101303100586,Left
2827.614013671875,22327,1,1760.0,1583.0,1822.0,1791.0,1597.0,1407.0,1755.0,1879.0,114.0876693725586,-30.943044662475586,20.951101303100586,Left
2829.614013671875,22327,1,1755.0,1815.0,1740.0,2055.0,1747.0,1564.0,1763.0,1955.0,114.0876693725586,-30.943044662475586,20.951101303100586,Left
2831.614013671875,22327,1,1757.0,1853.0,1663.0,1947.0,1941.0,1619.0,1763.0,2028.0,114.0876693725586,-30.943044662475586,20.951101303100586,Left
2835.7119140625,22328,1,1759.0,1929.0,1620.0,2229.0,1620.0,1785.0,1765.0,1984.0,114.0876693725586,-30.943044662475586,20.951101303100586,Left
2837.7119140625,22328,1,1764.0,1596.0,1715.0,1867.0,1979.0,1763.0,1762.0,1998.0,114.0876693725586,-30.943044662475586,20.951101303100586,Left
2839.7119140625,22328,1,1753.0,1659.0,1805.0,1655.0,1685.0,1789.0,1759.0,2053.0,114.0876693725586,-30.943044662475586,20.951101303100586,Left
2841.7119140625,22328,1,1759.0,2313.0,1708.0,1554.0,1559.0,1746.0,1761.0,2107.0,114.0876693725586,-30.943044662475586,20.951101303100586,Left
2843.7119140625,22328,1,1759.0,1645.0,1828.0,1707.0,1877.0,1617.0,1765.0,2111.0,114.0876693725586,-30.943044662475586,20.951101303100586,Left
2842.676025390625,22329,1,1757.0,1757.0,1760.0,1437.0,1380.0,1405.0,1753.0,1965.0,114.0876693725586,-30.943044662475586,20.951101303100586,Left
2844.676025390625,22329,1,1758.0,1874.0,1830.0,1701.0,1626.0,1544.0,1753.0,2173.0,114.0876693725586,-30.943044662475586,20.951101303100586,Left
2846.676025390625,22329,1,1763.0,1903.0,1847.0,1929.0,1803.0,1749.0,1757.0,2223.0,114.0876693725586,-30.943044662475586,20.951101303100586,Left
2848.676025390625,22329,1,1758.0,1661.0,1748.0,1928.0,1933.0,1766.0,1758.0,2317.0,114.0876693725586,-30.943044662475586,20.951101303100586,Left
2850.676025390625,22329,1,1753.0,1703.0,1677.0,1910.0,1723.0,1727.0,1763.0,2090.0,114.0876693725586,-30.943044662475586,20.951101303100586,Left
2860.300048828125,22330,1,1757.0,1926.0,1748.0,2132.0,1685.0,1899.0,1763.0,2251.0,114.0876693725586,-30.943044662475586,20.951101303100586,Left
2862.300048828125,22330,1,1763.0,1469.0,1797.0,1781.0,1607.0,1973.0,1763.0,2239.0,114.0876693725586,-30.943044662475586,20.951101303100586,Left
2864.300048828125,22330,1,1767.0,1517.0,1742.0,1596.0,1851.0,2041.0,1763.0,2052.0,114.0876693725586,-30.943044662475586,20.951101303100586,Left
2866.300048828125,22330,1,1752.0,1735.0,1803.0,1604.0,1679.0,1869.0,1752.0,1902.0,114.0876693725586,-30.943044662475586,20.951101303100586,Left
2868.300048828125,22330,1,1763.0,1769.0,1561.0,1589.0,1741.0,1789.0,1757.0,2116.0,114.0876693725586,-30.943044662475586,20.951101303100586,Left
2863.1650390625,22331,1,1751.0,1783.0,1746.0,1338.0,1875.0,1725.0,1757.0,1941.0,114.0876693725586,-30.943044662475586,20.951101303100586,Left
2865.1650390625,22331,1,1759.0,1679.0,1747.0,1502.0,1479.0,1747.0,1759.0,2074.0,114.0876693725586,-30.943044662475586,20.951101303100586,Left
2867.1650390625,22331,1,1755.0,1799.0,1896.0,1827.0,1771.0,1703.0,1755.0,2125.0,114.0876693725586,-30.943044662475586,20.951101303100586,Left
2869.1650390625,22331,1,1756.0,1775.0,1839.0,1875.0,1758.0,1786.0,1762.0,1989.0,114.0876693725586,-30.943044662475586,20.951101303100586,Left
2871.1650390625,22331,1,1757.0,1707.0,1739.0,1847.0,1635.0,1883.0,1763.0,2102.0,114.0876693725586,-30.943044662475586,20.951101303100586,Left
2874.07080078125,22332,1,1759.0,1883.0,1805.0,2157.0,1853.0,2141.0,1762.0,2143.0,114.0876693725586,-30.943044662475586,20.951101303100586,Left
2876.07080078125,22332,1,1762.0,1617.0,1753.0,1852.0,1768.0,2109.0,1754.0,2125.0,114.0876693725586,-30.943044662475586,20.951101303100586,Left
2878.07080078125,22332,1,1759.0,1740.0,1796.0,1639.0,1768.0,2015.0,1757.0,2131.0,114.0876693725586,-30.943044662475586,20.951101303100586,Left
2880.07080078125,22332,1,1759.0,1774.0,1800.0,1470.0,1726.0,1981.0,1762.0,2165.0,114.0876693725586,-30.943044662475586,20.951101303100586,Left
2882.07080078125,22332,1,1764.0,1661.0,1755.0,1733.0,1741.0,1913.0,1767.0,2057.0,114.0876693725586,-30.943044662475586,20.951101303100586,Left
2884.119140625,22333,1,1761.0,1861.0,1702.0,1491.0,1641.0,1881.0,1763.0,1995.0,114.0876693725586,-30.943044662475586,20.951101303100586,Left
2886.119140625,22333,1,1752.0,1883.0,1773.0,1617.0,2024.0,1883.0,1763.0,2191.0,114.0876693725586,-30.943044662475586,20.951101303100586,Left
2888.119140625,22333,1,1755.0,1788.0,1624.0,1773.0,1755.0,1877.0,1763.0,2077.0,114.0876693725586,-30.943044662475586,20.951101303100586,Left
2890.119140625,22333,1,1763.0,1717.0,1763.0,1820.0,1892.0,1791.0,1763.0,2052.0,113.6607666015625,-30.826229095458984,21.85459327697754,Left
2892.119140625,22333,1,1763.0,1705.0,1761.0,1901.0,1565.0,1801.0,1755.0,2053.0,113.6607666015625,-30.826229095458984,21.85459327697754,Left
2894.193115234375,22334,1,1755.0,2187.0,1771.0,2119.0,1785.0,1991.0,1765.0,2066.0,113.6607666015625,-30.826229095458984,21.85459327697754,Left
2896.193115234375,22334,1,1759.0,1507.0,1831.0,1812.0,1674.0,2058.0,1753.0,2071.0,113.6607666015625,-30.826229095458984,21.85459327697754,Left
2898.193115234375,22334,1,1759.0,1873.0,1707.0,1725.0,1813.0,1946.0,1767.0,2013.0,113.6607666015625,-30.826229095458984,21.85459327697754,Left
2900.193115234375,22334,1,1763.0,1587.0,1828.0,1651.0,1797.0,1837.0,1765.0,1917.0,113.6607666015625,-30.826229095458984,21.85459327697754,Left
2902.193115234375,22334,1,1757.0,1823.0,1635.0,1677.0,1583.0,1719.0,1764.0,2013.0,113.6607666015625,-30.826229095458984,21.85459327697754,Left
2903.84423828125,22335,1,1757.0,1814.0,1701.0,1365.0,1639.0,1553.0,1757.0,2022.0,113.6607666015625,-30.826229095458984,21.85459327697754,Left
2905.84423828125,22335,1,1753.0,1771.0,1807.0,1530.0,1849.0,1513.0,1755.0,2077.0,113.6607666015625,-30.826229095458984,21.85459327697754,Left
2907.84423828125,22335,1,1755.0,1897.0,1775.0,1801.0,1689.0,1529.0,1764.0,2163.0,113.6607666015625,-30.826229095458984,21.85459327697754,Left
2909.84423828125,22335,1,1764.0,1395.0,1721.0,1866.0,1843.0,1571.0,1759.0,2057.0,113.6607666015625,-30.826229095458984,21.85459327697754,Left
2911.84423828125,22335,1,1762.0,1975.0,1851.0,1992.0,1723.0,1686.0,1762.0,2043.0,113.6607666015625,-30.826229095458984,21.85459327697754,Left
2914.1240234375,22336,1,1759.0,1689.0,1855.0,2007.0,1805.0,1879.0,1753.0,2063.0,113.6607666015625,-30.826229095458984,21.85459327697754,Left
2916.1240234375,22336,1,1751.0,1673.0,1710.0,1831.0,1739.0,1895.0,1763.0,2090.0,113.6607666015625,-30.826229095458984,21.85459327697754,Left
2918.1240234375,22336,1,1761.0,1829.0,1669.0,1758.0,1705.0,1851.0,1765.0,1862.0,113.6607666015625,-30.826229095458984,21.85459327697754,Left
2920.1240234375,22336,1,1756.0,1837.0,1756.0,1663.0,1799.0,1893.0,1757.0,1849.0,113.6607666015625,-30.826229095458984,21.85459327697754,Left
2922.1240234375,22336,1,1759.0,2027.0,1851.0,1637.0,1819.0,1848.0,1764.0,1972.0,113.6607666015625,-30.826229095458984,21.85459327697754,Left
2924.10107421875,22337,1,1763.0,1478.0,1451.0,1399.0,1915.0,1619.0,1759.0,1849.0,113.6607666015625,-30.826229095458984,21.85459327697754,Left
2926.10107421875,22337,1,1759.0,1562.0,1645.0,1639.0,1614.0,1591.0,1753.0,1739.0,113.6607666015625,-30.826229095458984,21.85459327697754,Left
2928.10107421875,22337,1,1759.0,1787.0,1675.0,1861.0,1807.0,1654.0,1759.0,1961.0,113.6607666015625,-30.826229095458984,21.85459327697754,Left
2930.10107421875,22337,1,1763.0,1781.0,1846.0,1903.0,1720.0,1675.0,1759.0,2125.0,113.6607666015625,-30.826229095458984,21.85459327697754,Left
2932.10107421875,22337,1,1755.0,1851.0,1875.0,1824.0,1839.0,1705.0,1755.0,1991.0,113.6607666015625,-30.826229095458984,21.85459327697754,Left
2933.80908203125,22338,1,1758.0,1623.0,1820.0,2027.0,1704.0,1910.0,1753.0,2238.0,113.6607666015625,-30.826229095458984,21.85459327697754,Left
2935.80908203125,22338,1,1763.0,1637.0,1837.0,1819.0,1558.0,2009.0,1763.0,2333.0,113.6607666015625,-30.826229095458984,21.85459327697754,Left
2937.80908203125,22338,1,1764.0,1879.0,1757.0,1679.0,1883.0,2003.0,1764.0,2109.0,113.6607666015625,-30.826229095458984,21.85459327697754,Left
2939.80908203125,22338,1,1764.0,1688.0,1747.0,1626.0,1651.0,1763.0,1765.0,2212.0,113.6607666015625,-30.826229095458984,21.85459327697754,Left
2941.80908203125,22338,1,1750.0,1727.0,1746.0,1623.0,1715.0,1791.0,1758.0,2315.0,113.6607666015625,-30.826229095458984,21.85459327697754,Left
2943.837158203125,22339,1,1755.0,1624.0,1718.0,1407.0,1699.0,1703.0,1757.0,2251.0,113.6607666015625,-30.826229095458984,21.85459327697754,Left
2945.837158203125,22339,1,1764.0,1925.0,1787.0,1627.0,1797.0,1640.0,1762.0,2254.0,113.6607666015625,-30.826229095458984,21.85459327697754,Left
2947.837158203125,22339,1,1762.0,1788.0,1709.0,1837.0,1852.0,1628.0,1759.0,2332.0,113.6607666015625,-30.826229095458984,21.85459327697754,Left
2949.837158203125,22339,1,1763.0,1711.0,1775.0,1908.0,1817.0,1603.0,1757.0,2025.0,113.6607666015625,-30.826229095458984,21.85459327697754,Left
2951.837158203125,22339,1,1765.0,1799.0,1773.0,1976.0,1937.0,1633.0,1763.0,2075.0,113.6607666015625,-30.826229095458984,21.85459327697754,Left
2953.92822265625,22340,1,1753.0,1780.0,1722.0,2194.0,1725.0,1809.0,1755.0,2143.0,113.6607666015625,-30.826229095458984,21.85459327697754,Left
2955.92822265625,22340,1,1767.0,1851.0,1821.0,1932.0,1753.0,1886.0,1765.0,2216.0,113.69371795654297,-30.439529418945312,22.28550910949707,Left
2957.92822265625,22340,1,1761.0,2023.0,1658.0,1812.0,1720.0,1617.0,1755.0,2011.0,113.69371795654297,-30.439529418945312,22.28550910949707,Left
2959.92822265625,22340,1,1759.0,1459.0,1659.0,1605.0,1689.0,1545.0,1757.0,1981.0,113.69371795654297,-30.439529418945312,22.28550910949707,Left
2961.92822265625,22340,1,1763.0,1764.0,1780.0,1781.0,1890.0,1519.0,1763.0,1899.0,113.69371795654297,-30.439529418945312,22.28550910949707,Left
2965.169189453125,22341,1,1762.0,1611.0,1733.0,1561.0,1531.0,1214.0,1758.0,1736.0,113.69371795654297,-30.439529418945312,22.28550910949707,Left
2967.169189453125,22341,1,1764.0,1751.0,1789.0,1724.0,1852.0,1227.0,1759.0,1559.0,113.69371795654297,-30.439529418945312,22.28550910949707,Left
2969.169189453125,22341,1,1753.0,1734.0,1798.0,1816.0,1815.0,1378.0,1763.0,1435.0,113.69371795654297,-30.439529418945312,22.28550910949707,Left
2971.169189453125,22341,1,1763.0,1737.0,1711.0,1831.0,1927.0,1571.0,1765.0,1839.0,113.69371795654297,-30.439529418945312,22.28550910949707,Left
2973.169189453125,22341,1,1757.0,1819.0,1752.0,1913.0,1554.0,1613.0,1764.0,2037.0,113.69371795654297,-30.439529418945312,22.28550910949707,Left
2974.822998046875,22342,1,1753.0,1763.0,1739.0,1975.0,1623.0,1753.0,1765.0,2119.0,113.69371795654297,-30.439529418945312,22.28550910949707,Left
2976.822998046875,22342,1,1757.0,1798.0,1819.0,1961.0,1935.0,1900.0,1759.0,2402.0,113.69371795654297,-30.439529418945312,22.28550910949707,Left
2978.822998046875,22342,1,1749.0,1763.0,1700.0,1720.0,1860.0,1944.0,1763.0,2251.0,113.69371795654297,-30.439529418945312,22.28550910949707,Left
2980.822998046875,22342,1,1765.0,1821.0,1737.0,1499.0,1675.0,1876.0,1759.0,2228.0,113.69371795654297,-30.439529418945312,22.28550910949707,Left
2982.822998046875,22342,1,1757.0,1746.0,1806.0,1545.0,1653.0,1831.0,1762.0,2237.0,113.69371795654297,-30.439529418945312,22.28550910949707,Left
2985.156982421875,22343,1,1753.0,1865.0,1899.0,1461.0,1869.0,1703.0,1758.0,1959.0,113.69371795654297,-30.439529418945312,22.28550910949707,Left
2987.156982421875,22343,1,1757.0,1719.0,1691.0,1598.0,1647.0,1653.0,1758.0,2163.0,113.69371795654297,-30.439529418945312,22.28550910949707,Left
2989.156982421875,22343,1,1757.0,1855.0,1837.0,1781.0,1755.0,1659.0,1759.0,2132.0,113.69371795654297,-30.439529418945312,22.28550910949707,Left
2991.156982421875,22343,1,1754.0,2023.0,1753.0,1867.0,1719.0,1704.0,1765.0,2085.0,113.69371795654297,-30.439529418945312,22.28550910949707,Left
2993.156982421875,22343,1,1755.0,1715.0,1767.0,1833.0,1813.0,1811.0,1763.0,1939.0,113.69371795654297,-30.439529418945312,22.28550910949707,Left
2993.52783203125,22344,1,1765.0,2059.0,1727.0,2027.0,1781.0,2012.0,1764.0,1891.0,113.69371795654297,-30.439529418945312,22.28550910949707,Left
2995.52783203125,22344,1,1757.0,1591.0,1609.0,1912.0,1781.0,2119.0,1765.0,1968.0,113.69371795654297,-30.439529418945312,22.28550910949707,Left
2997.52783203125,22344,1,1753.0,1783.0,1719.0,1699.0,1663.0,2065.0,1759.0,2252.0,113.69371795654297,-30.439529418945312,22.28550910949707,Left
2999.52783203125,22344,1,1758.0,1725.0,1779.0,1657.0,1941.0,1967.0,1763.0,2073.0,113.69371795654297,-30.439529418945312,22.28550910949707,Left
3001.52783203125,22344,1,1758.0,1706.0,1815.0,1546.0,1317.0,1838.0,1759.0,1847.0,113.69371795654297,-30.439529418945312,22.28550910949707,Left
3003.80908203125,22345,1,1757.0,1705.0,1765.0,1469.0,1717.0,1862.0,1755.0,1976.0,113.69371795654297,-30.439529418945312,22.28550910949707,Left
3005.80908203125,22345,1,1752.0,1529.0,1757.0,1627.0,1693.0,1695.0,1758.0,1947.0,113.69371795654297,-30.439529418945312,22.28550910949707,Left
3007.80908203125,22345,1,1763.0,1845.0,1789.0,1787.0,1757.0,1773.0,1753.0,2019.0,113.69371795654297,-30.439529418945312,22.28550910949707,Left
3009.80908203125,22345,1,1755.0,1919.0,1781.0,1890.0,1766.0,1943.0,1762.0,2042.0,113.69371795654297,-30.439529418945312,22.28550910949707,Left
3011.80908203125,22345,1,1759.0,1678.0,1772.0,1880.0,1583.0,1963.0,1763.0,2063.0,113.69371795654297,-30.439529418945312,22.28550910949707,Left
3014.472900390625,22346,1,1757.0,1849.0,1775.0,2037.0,1991.0,1957.0,1763.0,2121.0,113.69371795654297,-30.439529418945312,22.28550910949707,Left
3016.472900390625,22346,1,1757.0,1789.0,1763.0,1939.0,1763.0,1965.0,1763.0,2157.0,113.69371795654297,-30.439529418945312,22.28550910949707,Left
3018.472900390625,22346,1,1757.0,1773.0,1805.0,1757.0,1903.0,1866.0,1755.0,2517.0,113.69371795654297,-30.439529418945312,22.28550910949707,Left
3020.472900390625,22346,1,1759.0,1847.0,1749.0,1577.0,1769.0,1836.0,1764.0,2502.0,113.9076919555664,-30.184921264648438,22.73635482788086,Left
3022.472900390625,22346,1,1757.0,1613.0,1718.0,1659.0,1619.0,1741.0,1759.0,2363.0,113.9076919555664,-30.184921264648438,22.73635482788086,Left
3023.441162109375,22347,1,1761.0,1727.0,1689.0,1545.0,1735.0,1683.0,1751.0,2137.0,113.9076919555664,-30.184921264648438,22.73635482788086,Left
3025.441162109375,22347,1,1757.0,1781.0,1611.0,1588.0,1739.0,1413.0,1762.0,2451.0,113.9076919555664,-30.184921264648438,22.73635482788086,Left
3027.441162109375,22347,1,1755.0,1784.0,1804.0,1719.0,1873.0,1502.0,1753.0,2467.0,113.9076919555664,-30.184921264648438,22.73635482788086,Left
3029.441162109375,22347,1,1757.0,1702.0,1786.0,1909.0,1627.0,1575.0,1763.0,2211.0,113.9076919555664,-30.184921264648438,22.73635482788086,Left
3031.441162109375,22347,1,1759.0,1708.0,1769.0,1951.0,1741.0,1591.0,1758.0,1967.0,113.9076919555664,-30.184921264648438,22.73635482788086,Left
3034.26416015625,22348,1,1753.0,1739.0,1750.0,2042.0,1765.0,1881.0,1764.0,1933.0,113.9076919555664,-30.184921264648438,22.73635482788086,Left
3036.26416015625,22348,1,1762.0,1961.0,1779.0,2013.0,1823.0,1983.0,1756.0,2135.0,113.9076919555664,-30.184921264648438,22.73635482788086,Left
3038.26416015625,22348,1,1763.0,1671.0,1591.0,1762.0,1668.0,1814.0,1753.0,2131.0,113.9076919555664,-30.184921264648438,22.73635482788086,Left
3040.26416015625,22348,1,1758.0,1919.0,1867.0,1689.0,1637.0,1829.0,1765.0,1927.0,113.9076919555664,-30.184921264648438,22.73635482788086,Left
3042.26416015625,22348,1,1757.0,1437.0,1763.0,1701.0,1779.0,1819.0,1763.0,1720.0,113.9076919555664,-30.184921264648438,22.73635482788086,Left
3043.390869140625,22349,1,1752.0,1819.0,1741.0,1566.0,1769.0,1709.0,1762.0,1911.0,113.9076919555664,-30.184921264648438,22.73635482788086,Left
3045.390869140625,22349,1,1765.0,1939.0,1725.0,1533.0,1811.0,1607.0,1763.0,1941.0,113.9076919555664,-30.184921264648438,22.73635482788086,Left
3047.390869140625,22349,1,1763.0,1609.0,1781.0,1736.0,1751.0,1702.0,1758.0,1903.0,113.9076919555664,-30.184921264648438,22.73635482788086,Left
3049.390869140625,22349,1,1759.0,2109.0,1797.0,1885.0,1843.0,1637.0,1763.0,2117.0,113.9076919555664,-30.184921264648438,22.73635482788086,Left
3051.390869140625,22349,1,1755.0,1526.0,1751.0,1869.0,1837.0,1703.0,1764.0,1925.0,113.9076919555664,-30.184921264648438,22.73635482788086,Left
3054.06787109375,22350,1,1763.0,1750.0,1869.0,2067.0,1669.0,1853.0,1763.0,1553.0,113.9076919555664,-30.184921264648438,22.73635482788086,Left
3056.06787109375,22350,1,1751.0,1837.0,1743.0,1949.0,1785.0,1899.0,1764.0,1571.0,113.9076919555664,-30.184921264648438,22.73635482788086,Left
3058.06787109375,22350,1,1763.0,1755.0,1629.0,1790.0,1709.0,1736.0,1755.0,1583.0,113.9076919555664,-30.184921264648438,22.73635482788086,Left
3060.06787109375,22350,1,1759.0,1743.0,1753.0,1643.0,1787.0,1641.0,1762.0,1618.0,113.9076919555664,-30.184921264648438,22.73635482788086,Left
3062.06787109375,22350,1,1755.0,1809.0,1762.0,1637.0,1694.0,1516.0,1763.0,1559.0,113.9076919555664,-30.184921264648438,22.73635482788086,Left
3064.05126953125,22351,1,1756.0,1629.0,1756.0,1559.0,1909.0,1491.0,1758.0,1715.0,113.9076919555664,-30.184921264648438,22.73635482788086,Left
3066.05126953125,22351,1,1757.0,1904.0,1789.0,1494.0,1734.0,1495.0,1753.0,1578.0,113.9076919555664,-30.184921264648438,22.73635482788086,Left
3068.05126953125,22351,1,1758.0,1837.0,1779.0,1768.0,1770.0,1659.0,1751.0,1802.0,113.9076919555664,-30.184921264648438,22.73635482788086,Left
3070.05126953125,22351,1,1759.0,1765.0,1800.0,1817.0,1784.0,1741.0,1753.0,1701.0,113.9076919555664,-30.184921264648438,22.73635482788086,Left
3072.05126953125,22351,1,1756.0,1773.0,1717.0,1801.0,1659.0,1865.0,1764.0,1639.0,113.9076919555664,-30.184921264648438,22.73635482788086,Left
3076.25390625,22352,1,1758.0,1743.0,1671.0,1883.0,1802.0,1983.0,1765.0,1746.0,113.9076919555664,-30.184921264648438,22.73635482788086,Left
3078.25390625,22352,1,1758.0,1865.0,1733.0,1885.0,1765.0,2009.0,1756.0,1701.0,113.9076919555664,-30.184921264648438,22.73635482788086,Left
3080.25390625,22352,1,1754.0,1595.0,1693.0,1651.0,1835.0,1893.0,1764.0,1907.0,113.9076919555664,-30.184921264648438,22.73635482788086,Left
3082.25390625,22352,1,1755.0,1786.0,1783.0,1661.0,1864.0,1845.0,1755.0,1579.0,113.9076919555664,-30.184921264648438,22.73635482788086,Left
3084.25390625,22352,1,1757.0,1805.0,1790.0,1672.0,1739.0,1781.0,1761.0,1485.0,113.9076919555664,-30.184921264648438,22.73635482788086,Left
3086.115966796875,22353,1,1753.0,1685.0,1786.0,1587.0,1785.0,1619.0,1757.0,1302.0,113.9076919555664,-30.184921264648438,22.73635482788086,Left
3088.115966796875,22353,1,1763.0,1800.0,1735.0,1467.0,1676.0,1499.0,1758.0,1213.0,113.71466064453125,-29.977266311645508,23.546871185302734,Left
3090.115966796875,22353,1,1759.0,1783.0,1745.0,1765.0,1785.0,1483.0,1753.0,1455.0,113.71466064453125,-29.977266311645508,23.546871185302734,Left
3092.115966796875,22353,1,1762.0,1787.0,1807.0,1925.0,1769.0,1627.0,1761.0,1525.0,113.71466064453125,-29.977266311645508,23.546871185302734,Left
3094.115966796875,22353,1,1759.0,1653.0,1747.0,1827.0,1781.0,1724.0,1752.0,1519.0,113.71466064453125,-29.977266311645508,23.546871185302734,Left
3095.060791015625,22354,1,1762.0,1746.0,1801.0,2003.0,1463.0,1848.0,1762.0,1343.0,113.71466064453125,-29.977266311645508,23.546871185302734,Left
3097.060791015625,22354,1,1757.0,1671.0,1719.0,1999.0,1773.0,1965.0,1757.0,1235.0,113.71466064453125,-29.977266311645508,23.546871185302734,Left
3099.060791015625,22354,1,1757.0,2056.0,1901.0,1933.0,1846.0,2013.0,1765.0,1166.0,113.71466064453125,-29.977266311645508,23.546871185302734,Left
3101.060791015625,22354,1,1763.0,1879.0,1771.0,1788.0,1779.0,1869.0,1755.0,1143.0,113.71466064453125,-29.977266311645508,23.546871185302734,Left
3103.060791015625,22354,1,1761.0,1629.0,1695.0,1639.0,1672.0,1836.0,1759.0,1052.0,113.71466064453125,-29.977266311645508,23.546871185302734,Left
3104.989013671875,22355,1,1763.0,1721.0,1463.0,1613.0,1724.0,1621.0,1755.0,1525.0,113.71466064453125,-29.977266311645508,23.546871185302734,Left
3106.989013671875,22355,1,1761.0,1785.0,1653.0,1555.0,1811.0,1481.0,1753.0,1833.0,113.71466064453125,-29.977266311645508,23.546871185302734,Left
3108.989013671875,22355,1,1763.0,1832.0,1824.0,1686.0,1738.0,1567.0,1759.0,1817.0,113.71466064453125,-29.977266311645508,23.546871185302734,Left
3110.989013671875,22355,1,1759.0,1769.0,1733.0,1827.0,1711.0,1615.0,1761.0,1783.0,113.71466064453125,-29.977266311645508,23.546871185302734,Left
3112.989013671875,22355,1,1759.0,1745.0,1833.0,1861.0,1755.0,1753.0,1759.0,1781.0,113.71466064453125,-29.977266311645508,23.546871185302734,Left
3113.5849609375,22356,1,1762.0,1739.0,1847.0,1930.0,1693.0,2071.0,1759.0,2005.0,113.71466064453125,-29.977266311645508,23.546871185302734,Left
3115.5849609375,22356,1,1763.0,1736.0,1710.0,1951.0,1645.0,2055.0,1763.0,2029.0,113.71466064453125,-29.977266311645508,23.546871185302734,Left
3117.5849609375,22356,1,1751.0,1900.0,1763.0,1763.0,1775.0,2015.0,1761.0,1799.0,113.71466064453125,-29.977266311645508,23.546871185302734,Left
3119.5849609375,22356,1,1757.0,1692.0,1739.0,1677.0,1647.0,1926.0,1755.0,1436.0,113.71466064453125,-29.977266311645508,23.546871185302734,Left
3121.5849609375,22356,1,1761.0,1878.0,1783.0,1655.0,1827.0,1815.0,1764.0,1391.0,113.71466064453125,-29.977266311645508,23.546871185302734,Left
3125.03515625,22357,1,1757.0,1677.0,1801.0,1581.0,2024.0,1582.0,1753.0,1353.0,113.71466064453125,-29.977266311645508,23.546871185302734,Left
3127.03515625,22357,1,1759.0,1711.0,1772.0,1453.0,1527.0,1483.0,1758.0,1287.0,113.71466064453125,-29.977266311645508,23.546871185302734,Left
3129.03515625,22357,1,1761.0,1881.0,1752.0,1723.0,1785.0,1507.0,1759.0,1301.0,113.71466064453125,-29.977266311645508,23.546871185302734,Left
3131.03515625,22357,1,1757.0,1739.0,1748.0,1813.0,1660.0,1673.0,1762.0,1299.0,113.71466064453125,-29.977266311645508,23.546871185302734,Left
3133.03515625,22357,1,1763.0,1911.0,1711.0,1828.0,1719.0,1723.0,1753.0,1215.0,113.71466064453125,-29.977266311645508,23.546871185302734,Left
3135.052001953125,22358,1,1756.0,1691.0,1748.0,1866.0,1941.0,1768.0,1753.0,1279.0,113.71466064453125,-29.977266311645508,23.546871185302734,Left
3137.052001953125,22358,1,1753.0,1526.0,1787.0,1931.0,1579.0,1975.0,1757.0,1404.0,113.71466064453125,-29.977266311645508,23.546871185302734,Left
3139.052001953125,22358,1,1757.0,1855.0,1753.0,1700.0,1863.0,1866.0,1763.0,1764.0,113.71466064453125,-29.977266311645508,23.546871185302734,Left
3141.052001953125,22358,1,1759.0,1656.0,1853.0,1642.0,1710.0,1805.0,1755.0,1618.0,113.71466064453125,-29.977266311645508,23.546871185302734,Left
3143.052001953125,22358,1,1759.0,1851.0,1783.0,1639.0,1755.0,1625.0,1763.0,1881.0,113.71466064453125,-29.977266311645508,23.546871185302734,Left
3144.943115234375,22359,1,1757.0,1993.0,1652.0,1629.0,1747.0,1586.0,1755.0,1767.0,113.71466064453125,-29.977266311645508,23.546871185302734,Left
3146.943115234375,22359,1,1756.0,1893.0,1799.0,1611.0,1861.0,1548.0,1763.0,1659.0,113.71466064453125,-29.977266311645508,23.546871185302734,Left
3148.943115234375,22359,1,1757.0,1439.0,1701.0,1753.0,1675.0,1596.0,1763.0,1700.0,113.71466064453125,-29.977266311645508,23.546871185302734,Left
3150.943115234375,22359,1,1762.0,1903.0,1753.0,1885.0,1673.0,1715.0,1757.0,1769.0,113.41214752197266,-29.751890182495117,24.722192764282227,Left
3152.943115234375,22359,1,1757.0,1401.0,1701.0,1775.0,1855.0,1779.0,1755.0,1815.0,113.41214752197266,-29.751890182495117,24.722192764282227,Left
3154.09814453125,22360,1,1756.0,1992.0,1767.0,1917.0,1781.0,1935.0,1756.0,1647.0,113.41214752197266,-29.751890182495117,24.722192764282227,Left
3156.09814453125,22360,1,1755.0,1651.0,1791.0,1972.0,1683.0,1990.0,1765.0,1687.0,113.41214752197266,-29.751890182495117,24.722192764282227,Left
3158.09814453125,22360,1,1757.0,1687.0,1767.0,1789.0,1719.0,1850.0,1765.0,1683.0,113.41214752197266,-29.751890182495117,24.722192764282227,Left
3160.09814453125,22360,1,1758.0,1769.0,1789.0,1683.0,1813.0,1779.0,1755.0,1493.0,113.41214752197266,-29.751890182495117,24.722192764282227,Left
3162.09814453125,22360,1,1759.0,1935.0,1769.0,1657.0,1929.0,1691.0,1761.0,1275.0,113.41214752197266,-29.751890182495117,24.722192764282227,Left
3165.81396484375,22361,1,1755.0,1407.0,1776.0,1696.0,1646.0,1523.0,1759.0,1097.0,113.41214752197266,-29.751890182495117,24.722192764282227,Left
3167.81396484375,22361,1,1755.0,1735.0,1705.0,1621.0,1591.0,1423.0,1759.0,995.0,113.41214752197266,-29.751890182495117,24.722192764282227,Left
3169.81396484375,22361,1,1765.0,1839.0,1764.0,1773.0,1847.0,1555.0,1757.0,928.0,113.41214752197266,-29.751890182495117,24.722192764282227,Left
3171.81396484375,22361,1,1764.0,1711.0,1737.0,1835.0,1815.0,1707.0,1753.0,1011.0,113.41214752197266,-29.751890182495117,24.722192764282227,Left
3173.81396484375,22361,1,1759.0,1977.0,1720.0,1911.0,1679.0,1811.0,1764.0,909.0,113.41214752197266,-29.751890182495117,24.722192764282227,Left
3175.1552734375,22362,1,1765.0,1635.0,1765.0,1900.0,1629.0,1955.0,1759.0,1124.0,113.41214752197266,-29.751890182495117,24.722192764282227,Left
3177.1552734375,22362,1,1757.0,1791.0,1686.0,1975.0,1847.0,2147.0,1759.0,1362.0,113.41214752197266,-29.751890182495117,24.722192764282227,Left
3179.1552734375,22362,1,1756.0,1774.0,1751.0,1724.0,1821.0,2101.0,1763.0,1330.0,113.41214752197266,-29.751890182495117,24.722192764282227,Left
3181.1552734375,22362,1,1758.0,1950.0,1815.0,1641.0,1817.0,2019.0,1763.0,1293.0,113.41214752197266,-29.751890182495117,24.722192764282227,Left
3183.1552734375,22362,1,1763.0,1614.0,1804.0,1705.0,1621.0,1889.0,1759.0,1432.0,113.41214752197266,-29.751890182495117,24.722192764282227,Left
3183.695068359375,22363,1,1753.0,1874.0,1774.0,1719.0,1803.0,1748.0,1763.0,1327.0,113.41214752197266,-29.751890182495117,24.722192764282227,Left
3185.695068359375,22363,1,1753.0,1691.0,1703.0,1587.0,1635.0,1639.0,1759.0,1319.0,113.41214752197266,-29.751890182495117,24.722192764282227,Left
3187.695068359375,22363,1,1752.0,1865.0,1739.0,1734.0,1747.0,1502.0,1755.0,1324.0,113.41214752197266,-29.751890182495117,24.722192764282227,Left
3189.695068359375,22363,1,1764.0,1799.0,1763.0,1864.0,1805.0,1611.0,1762.0,1500.0,113.41214752197266,-29.751890182495117,24.722192764282227,Left
3191.695068359375,22363,1,1759.0,1774.0,1764.0,1791.0,1821.0,1695.0,1756.0,1716.0,113.41214752197266,-29.751890182495117,24.722192764282227,Left
3194.235107421875,22364,1,1759.0,1661.0,1834.0,1791.0,1663.0,1856.0,1759.0,1805.0,113.41214752197266,-29.751890182495117,24.722192764282227,Left
3196.235107421875,22364,1,1763.0,1884.0,1656.0,1928.0,1781.0,2056.0,1765.0,1895.0,113.41214752197266,-29.751890182495117,24.722192764282227,Left
3198.235107421875,22364,1,1757.0,1771.0,1767.0,1765.0,1727.0,1979.0,1754.0,2152.0,113.41214752197266,-29.751890182495117,24.722192764282227,Left
3200.235107421875,22364,1,1765.0,1621.0,1727.0,1625.0,1790.0,1829.0,1759.0,1774.0,113.41214752197266,-29.751890182495117,24.722192764282227,Left
3202.235107421875,22364,1,1757.0,1823.0,1800.0,1696.0,1671.0,1785.0,1756.0,1681.0,113.41214752197266,-29.751890182495117,24.722192764282227,Left
3205.64208984375,22365,1,1753.0,1755.0,1773.0,1634.0,1672.0,1619.0,1758.0,1567.0,113.41214752197266,-29.751890182495117,24.722192764282227,Left
3207.64208984375,22365,1,1755.0,1837.0,1801.0,1553.0,1887.0,1427.0,1758.0,1592.0,113.41214752197266,-29.751890182495117,24.722192764282227,Left
3209.64208984375,22365,1,1763.0,1693.0,1719.0,1718.0,1749.0,1547.0,1759.0,1747.0,113.41214752197266,-29.751890182495117,24.722192764282227,Left
3211.64208984375,22365,1,1763.0,1628.0,1784.0,1836.0,1739.0,1673.0,1757.0,1829.0,113.41214752197266,-29.751890182495117,24.722192764282227,Left
3213.64208984375,22365,1,1762.0,1938.0,1721.0,1837.0,1787.0,1693.0,1763.0,1881.0,113.41214752197266,-29.751890182495117,24.722192764282227,Left
3216.865966796875,22366,1,1759.0,1596.0,1767.0,1837.0,1709.0,1677.0,1763.0,2579.0,113.41214752197266,-29.751890182495117,24.722192764282227,Left
3218.865966796875,22366,1,1763.0,1579.0,1706.0,1940.0,1720.0,1974.0,1759.0,2428.0,113.38824462890625,-29.321367263793945,26.407123565673828,Left
3220.865966796875,22366,1,1762.0,1908.0,1711.0,1813.0,1773.0,1975.0,1765.0,2154.0,113.38824462890625,-29.321367263793945,26.407123565673828,Left
3222.865966796875,22366,1,1763.0,1788.0,1754.0,1784.0,1959.0,1915.0,1765.0,1894.0,113.38824462890625,-29.321367263793945,26.407123565673828,Left
3224.865966796875,22366,1,1753.0,1693.0,1759.0,1673.0,1687.0,1789.0,1763.0,1519.0,113.38824462890625,-29.321367263793945,26.407123565673828,Left
3225.655029296875,22367,1,1753.0,1763.0,1798.0,1715.0,1641.0,1783.0,1745.0,1140.0,113.38824462890625,-29.321367263793945,26.407123565673828,Left
3227.655029296875,22367,1,1755.0,2101.0,1791.0,1609.0,1735.0,1566.0,1756.0,923.0,113.38824462890625,-29.321367263793945,26.407123565673828,Left
3229.655029296875,22367,1,1759.0,1513.0,1787.0,1711.0,1759.0,1484.0,1766.0,1077.0,113.38824462890625,-29.321367263793945,26.407123565673828,Left
3231.655029296875,22367,1,1765.0,1709.0,1720.0,1864.0,1683.0,1587.0,1764.0,2357.0,113.38824462890625,-29.321367263793945,26.407123565673828,Left
3233.655029296875,22367,1,1759.0,1972.0,1781.0,1839.0,1779.0,1644.0,1763.0,2115.0,113.38824462890625,-29.321367263793945,26.407123565673828,Left
3233.23193359375,22368,1,1759.0,2031.0,1743.0,1833.0,1833.0,1693.0,1764.0,2043.0,113.38824462890625,-29.321367263793945,26.407123565673828,Left
3235.23193359375,22368,1,1757.0,1421.0,1757.0,1901.0,1624.0,2041.0,1763.0,1904.0,113.38824462890625,-29.321367263793945,26.407123565673828,Left
3237.23193359375,22368,1,1764.0,1765.0,1787.0,1788.0,1769.0,1930.0,1763.0,1261.0,113.38824462890625,-29.321367263793945,26.407123565673828,Left
3239.23193359375,22368,1,1759.0,1630.0,1738.0,1645.0,1743.0,1689.0,1763.0,980.0,113.38824462890625,-29.321367263793945,26.407123565673828,Left
3241.23193359375,22368,1,1757.0,1827.0,1759.0,1681.0,1789.0,1580.0,1763.0,866.0,113.38824462890625,-29.321367263793945,26.407123565673828,Left
3245.464111328125,22369,1,1753.0,1822.0,1758.0,1703.0,1799.0,1509.0,1758.0,1783.0,113.38824462890625,-29.321367263793945,26.407123565673828,Left
3247.464111328125,22369,1,1758.0,1759.0,1739.0,1539.0,1739.0,1375.0,1757.0,2103.0,113.38824462890625,-29.321367263793945,26.407123565673828,Left
3249.464111328125,22369,1,1756.0,1787.0,1797.0,1745.0,1704.0,1337.0,1762.0,2495.0,113.38824462890625,-29.321367263793945,26.407123565673828,Left
3251.464111328125,22369,1,1757.0,2042.0,1720.0,1820.0,1909.0,1463.0,1754.0,2277.0,113.38824462890625,-29.321367263793945,26.407123565673828,Left
3253.464111328125,22369,1,1763.0,1789.0,1783.0,1879.0,1772.0,1599.0,1765.0,2004.0,113.38824462890625,-29.321367263793945,26.407123565673828,Left
3254.96923828125,22370,1,1757.0,1575.0,1725.0,1806.0,1721.0,1722.0,1751.0,1813.0,113.38824462890625,-29.321367263793945,26.407123565673828,Left
3256.96923828125,22370,1,1759.0,1657.0,1711.0,1967.0,1716.0,1896.0,1757.0,1767.0,113.38824462890625,-29.321367263793945,26.407123565673828,Left
3258.96923828125,22370,1,1761.0,1946.0,1783.0,1801.0,1752.0,1883.0,1764.0,1740.0,113.38824462890625,-29.321367263793945,26.407123565673828,Left
3260.96923828125,22370,1,1762.0,1563.0,1787.0,1591.0,1724.0,1801.0,1753.0,1887.0,113.38824462890625,-29.321367263793945,26.407123565673828,Left
3262.96923828125,22370,1,1757.0,2023.0,1783.0,1711.0,1769.0,1703.0,1763.0,1891.0,113.38824462890625,-29.321367263793945,26.407123565673828,Left
3269.02490234375,22371,1,1757.0,1477.0,1791.0,1567.0,1684.0,1719.0,1757.0,1705.0,113.38824462890625,-29.321367263793945,26.407123565673828,Left
3271.02490234375,22371,1,1757.0,1817.0,1781.0,1576.0,1804.0,1592.0,1762.0,1900.0,113.38824462890625,-29.321367263793945,26.407123565673828,Left
3273.02490234375,22371,1,1753.0,1741.0,1715.0,1675.0,1764.0,1533.0,1763.0,1978.0,113.38824462890625,-29.321367263793945,26.407123565673828,Left
3275.02490234375,22371,1,1757.0,1752.0,1683.0,1799.0,1753.0,1691.0,1757.0,2121.0,113.38824462890625,-29.321367263793945,26.407123565673828,Left
3277.02490234375,22371,1,1763.0,1823.0,1752.0,1860.0,1961.0,1806.0,1762.0,2111.0,113.38824462890625,-29.321367263793945,26.407123565673828,Left
3273.76416015625,22372,1,1755.0,1703.0,1844.0,1848.0,1405.0,1893.0,1757.0,2068.0,113.38824462890625,-29.321367263793945,26.407123565673828,Left
3275.76416015625,22372,1,1758.0,1813.0,1772.0,1977.0,1719.0,2119.0,1762.0,2063.0,113.38824462890625,-29.321367263793945,26.407123565673828,Left
3277.76416015625,22372,1,1759.0,1695.0,1645.0,1785.0,1823.0,2099.0,1759.0,1993.0,113.38824462890625,-29.321367263793945,26.407123565673828,Left
3279.76416015625,22372,1,1757.0,1951.0,1685.0,1667.0,1740.0,1845.0,1762.0,1944.0,113.04993438720703,-28.957321166992188,28.326351165771484,Left
3281.76416015625,22372,1,1758.0,1549.0,1755.0,1645.0,1693.0,1813.0,1757.0,1959.0,113.04993438720703,-28.957321166992188,28.326351165771484,Left
3285.548828125,22373,1,1759.0,1849.0,1755.0,1699.0,1787.0,1829.0,1763.0,1774.0,113.04993438720703,-28.957321166992188,28.326351165771484,Left
3287.548828125,22373,1,1755.0,1700.0,1806.0,1583.0,1797.0,1638.0,1757.0,1563.0,113.04993438720703,-28.957321166992188,28.326351165771484,Left
3289.548828125,22373,1,1751.0,1753.0,1803.0,1745.0,1637.0,1580.0,1764.0,1635.0,113.04993438720703,-28.957321166992188,28.326351165771484,Left
3291.548828125,22373,1,1759.0,1779.0,1772.0,1876.0,1849.0,1635.0,1759.0,1893.0,113.04993438720703,-28.957321166992188,28.326351165771484,Left
3293.548828125,22373,1,1763.0,1613.0,1850.0,1917.0,1646.0,1676.0,1762.0,2056.0,113.04993438720703,-28.957321166992188,28.326351165771484,Left
3295.208984375,22374,1,1763.0,1821.0,1559.0,1880.0,1743.0,1780.0,1759.0,2063.0,113.04993438720703,-28.957321166992188,28.326351165771484,Left
3297.208984375,22374,1,1757.0,1721.0,1747.0,1901.0,1747.0,1997.0,1757.0,1843.0,113.04993438720703,-28.957321166992188,28.326351165771484,Left
3299.208984375,22374,1,1757.0,1847.0,1771.0,1816.0,1881.0,1939.0,1763.0,1524.0,113.04993438720703,-28.957321166992188,28.326351165771484,Left
3301.208984375,22374,1,1763.0,1545.0,1791.0,1736.0,1685.0,1910.0,1763.0,1421.0,113.04993438720703,-28.957321166992188,28.326351165771484,Left
3303.208984375,22374,1,1758.0,1903.0,1785.0,1695.0,1835.0,1783.0,1763.0,1207.0,113.04993438720703,-28.957321166992188,28.326351165771484,Left
3303.48291015625,22375,1,1755.0,1861.0,1681.0,1645.0,1706.0,1669.0,1749.0,1079.0,113.04993438720703,-28.957321166992188,28.326351165771484,Left
3305.48291015625,22375,1,1763.0,1683.0,1751.0,1587.0,1613.0,1455.0,1763.0,1035.0,113.04993438720703,-28.957321166992188,28.326351165771484,Left
3307.48291015625,22375,1,1753.0,1773.0,1830.0,1691.0,1821.0,1561.0,1759.0,1181.0,113.04993438720703,-28.957321166992188,28.326351165771484,Left
3309.48291015625,22375,1,1763.0,1385.0,1787.0,1750.0,1741.0,1758.0,1763.0,1471.0,113.04993438720703,-28.957321166992188,28.326351165771484,Left
3311.48291015625,22375,1,1762.0,1809.0,1657.0,1895.0,1785.0,1833.0,1755.0,1369.0,113.04993438720703,-28.957321166992188,28.326351165771484,Left
3316.298095703125,22376,1,1757.0,1797.0,1715.0,1839.0,1785.0,1799.0,1755.0,1563.0,113.04993438720703,-28.957321166992188,28.326351165771484,Left
3318.298095703125,22376,1,1763.0,1703.0,1789.0,1907.0,1701.0,2079.0,1763.0,1595.0,113.04993438720703,-28.957321166992188,28.326351165771484,Left
3320.298095703125,22376,1,1756.0,1783.0,1851.0,1775.0,1753.0,2103.0,1765.0,1560.0,113.04993438720703,-28.957321166992188,28.326351165771484,Left
3322.298095703125,22376,1,1754.0,1775.0,1772.0,1698.0,1745.0,2021.0,1755.0,1615.0,113.04993438720703,-28.957321166992188,28.326351165771484,Left
3324.298095703125,22376,1,1755.0,1907.0,1655.0,1645.0,1766.0,1820.0,1765.0,1445.0,113.04993438720703,-28.957321166992188,28.326351165771484,Left
3326.150146484375,22377,1,1759.0,1564.0,1706.0,1679.0,1685.0,1880.0,1740.0,1590.0,113.04993438720703,-28.957321166992188,28.326351165771484,Left
3328.150146484375,22377,1,1756.0,1787.0,1781.0,1595.0,1749.0,1628.0,1763.0,1580.0,113.04993438720703,-28.957321166992188,28.326351165771484,Left
3330.150146484375,22377,1,1755.0,1773.0,1764.0,1663.0,1787.0,1565.0,1757.0,1833.0,113.04993438720703,-28.957321166992188,28.326351165771484,Left
3332.150146484375,22377,1,1759.0,1800.0,1721.0,1775.0,1722.0,1685.0,1759.0,2519.0,113.04993438720703,-28.957321166992188,28.326351165771484,Left
3334.150146484375,22377,1,1758.0,1805.0,1735.0,1805.0,1766.0,1887.0,1759.0,2412.0,113.04993438720703,-28.957321166992188,28.326351165771484,Left
3335.138916015625,22378,1,1754.0,1662.0,1830.0,1801.0,1767.0,1955.0,1753.0,2587.0,113.04993438720703,-28.957321166992188,28.326351165771484,Left
3337.138916015625,22378,1,1759.0,1790.0,1837.0,1931.0,1775.0,2030.0,1765.0,3031.0,113.04993438720703,-28.957321166992188,28.326351165771484,Left
3339.138916015625,22378,1,1757.0,1748.0,1821.0,1821.0,1688.0,1915.0,1765.0,3678.0,113.04993438720703,-28.957321166992188,28.326351165771484,Left
3341.138916015625,22378,1,1753.0,1821.0,1684.0,1767.0,1834.0,1817.0,1764.0,3804.0,113.04993438720703,-28.957321166992188,28.326351165771484,Left
3343.138916015625,22378,1,1764.0,1627.0,1791.0,1607.0,1754.0,1755.0,1764.0,3805.0,113.04993438720703,-28.957321166992188,28.326351165771484,Left
3343.95703125,22379,1,1763.0,1819.0,1739.0,1653.0,1749.0,1673.0,1740.0,3813.0,113.04993438720703,-28.957321166992188,28.326351165771484,Left
3345.95703125,22379,1,1757.0,1737.0,1720.0,1565.0,1811.0,1491.0,1757.0,3437.0,112.77717590332031,-28.765974044799805,30.122148513793945,Left
3347.95703125,22379,1,1763.0,1787.0,1751.0,1685.0,1672.0,1579.0,1753.0,3181.0,112.77717590332031,-28.765974044799805,30.122148513793945,Left
3349.95703125,22379,1,1758.0,1612.0,1799.0,1837.0,1719.0,1445.0,1759.0,3007.0,112.77717590332031,-28.765974044799805,30.122148513793945,Left
3351.95703125,22379,1,1763.0,1779.0,1768.0,1875.0,1885.0,1637.0,1763.0,2727.0,112.77717590332031,-28.765974044799805,30.122148513793945,Left
3353.777099609375,22380,1,1757.0,1939.0,1711.0,1779.0,1691.0,1687.0,1749.0,2536.0,112.77717590332031,-28.765974044799805,30.122148513793945,Left
3355.777099609375,22380,1,1763.0,1883.0,1755.0,1882.0,1686.0,1929.0,1756.0,2415.0,112.77717590332031,-28.765974044799805,30.122148513793945,Left
3357.777099609375,22380,1,1755.0,1816.0,1637.0,1803.0,1700.0,1881.0,1761.0,2155.0,112.77717590332031,-28.765974044799805,30.122148513793945,Left
3359.777099609375,22380,1,1758.0,1676.0,1790.0,1706.0,1848.0,1819.0,1761.0,1917.0,112.77717590332031,-28.765974044799805,30.122148513793945,Left
3361.777099609375,22380,1,1761.0,1805.0,1816.0,1685.0,1773.0,1747.0,1753.0,1699.0,112.77717590332031,-28.765974044799805,30.122148513793945,Left
3370.65380859375,22381,1,1758.0,1679.0,1750.0,1681.0,1891.0,1608.0,1761.0,1477.0,112.77717590332031,-28.765974044799805,30.122148513793945,Left
3372.65380859375,22381,1,1753.0,1851.0,1785.0,1578.0,1615.0,1389.0,1756.0,1287.0,112.77717590332031,-28.765974044799805,30.122148513793945,Left
3374.65380859375,22381,1,1759.0,1867.0,1817.0,1660.0,1728.0,1500.0,1758.0,1150.0,112.77717590332031,-28.765974044799805,30.122148513793945,Left
3376.65380859375,22381,1,1757.0,1754.0,1723.0,1789.0,1749.0,1646.0,1764.0,1124.0,112.77717590332031,-28.765974044799805,30.122148513793945,Left
3378.65380859375,22381,1,1757.0,1837.0,1689.0,1865.0,1755.0,1631.0,1754.0,1106.0,112.77717590332031,-28.765974044799805,30.122148513793945,Left
3375.2109375,22382,1,1762.0,1875.0,1687.0,1860.0,1751.0,1719.0,1741.0,1067.0,112.77717590332031,-28.765974044799805,30.122148513793945,Left
3377.2109375,22382,1,1763.0,1571.0,1791.0,1851.0,1755.0,1943.0,1765.0,1229.0,112.77717590332031,-28.765974044799805,30.122148513793945,Left
3379.2109375,22382,1,1759.0,1823.0,1767.0,1821.0,1749.0,2079.0,1763.0,1315.0,112.77717590332031,-28.765974044799805,30.122148513793945,Left
3381.2109375,22382,1,1763.0,1695.0,1673.0,1679.0,1757.0,2014.0,1753.0,1227.0,112.77717590332031,-28.765974044799805,30.122148513793945,Left
3383.2109375,22382,1,1759.0,1885.0,1755.0,1711.0,1770.0,1847.0,1763.0,1161.0,112.77717590332031,-28.765974044799805,30.122148513793945,Left
3383.630126953125,22383,1,1759.0,1810.0,1771.0,1685.0,1746.0,1779.0,1752.0,1357.0,112.77717590332031,-28.765974044799805,30.122148513793945,Left
3385.630126953125,22383,1,1747.0,1683.0,1769.0,1587.0,1723.0,1533.0,1757.0,1215.0,112.77717590332031,-28.765974044799805,30.122148513793945,Left
3387.630126953125,22383,1,1763.0,1843.0,1840.0,1679.0,1748.0,1573.0,1757.0,1013.0,112.77717590332031,-28.765974044799805,30.122148513793945,Left
3389.630126953125,22383,1,1753.0,1717.0,1753.0,1854.0,1752.0,1711.0,1758.0,1097.0,112.77717590332031,-28.765974044799805,30.122148513793945,Left
3391.630126953125,22383,1,1763.0,1755.0,1755.0,1839.0,1737.0,1802.0,1757.0,1061.0,112.77717590332031,-28.765974044799805,30.122148513793945,Left
3394.52001953125,22384,1,1762.0,1867.0,1752.0,1815.0,1784.0,1783.0,1758.0,1243.0,112.77717590332031,-28.765974044799805,30.122148513793945,Left
3396.52001953125,22384,1,1759.0,1564.0,1703.0,1941.0,1711.0,2037.0,1753.0,1353.0,112.77717590332031,-28.765974044799805,30.122148513793945,Left
3398.52001953125,22384,1,1757.0,1819.0,1743.0,1791.0,1743.0,2023.0,1763.0,1315.0,112.77717590332031,-28.765974044799805,30.122148513793945,Left
3400.52001953125,22384,1,1763.0,1573.0,1785.0,1741.0,1736.0,1885.0,1758.0,1312.0,112.77717590332031,-28.765974044799805,30.122148513793945,Left
3402.52001953125,22384,1,1765.0,1785.0,1742.0,1704.0,1757.0,1685.0,1763.0,1383.0,112.77717590332031,-28.765974044799805,30.122148513793945,Left
3404.494140625,22385,1,1762.0,1809.0,1798.0,1733.0,1861.0,1671.0,1763.0,1388.0,112.77717590332031,-28.765974044799805,30.122148513793945,Left
3406.494140625,22385,1,1759.0,1757.0,1767.0,1571.0,1787.0,1486.0,1757.0,1497.0,112.77717590332031,-28.765974044799805,30.122148513793945,Left
3408.494140625,22385,1,1757.0,1855.0,1743.0,1675.0,1625.0,1459.0,1755.0,1485.0,112.77717590332031,-28.765974044799805,30.122148513793945,Left
3410.494140625,22385,1,1759.0,1867.0,1811.0,1800.0,1727.0,1593.0,1761.0,1591.0,112.59123229980469,-28.565670013427734,31.726789474487305,Left
3412.494140625,22385,1,1756.0,1525.0,1719.0,1839.0,1737.0,1723.0,1755.0,1562.0,112.59123229980469,-28.565670013427734,31.726789474487305,Left
3413.635009765625,22386,1,1759.0,1715.0,1687.0,1801.0,1767.0,1823.0,1763.0,1491.0,112.59123229980469,-28.565670013427734,31.726789474487305,Left
3415.635009765625,22386,1,1758.0,1756.0,1752.0,1946.0,1768.0,2031.0,1763.0,1727.0,112.59123229980469,-28.565670013427734,31.726789474487305,Left
3417.635009765625,22386,1,1763.0,1791.0,1644.0,1904.0,1717.0,2089.0,1764.0,1676.0,112.59123229980469,-28.565670013427734,31.726789474487305,Left
3419.635009765625,22386,1,1759.0,1833.0,1791.0,1745.0,1881.0,1997.0,1756.0,1489.0,112.59123229980469,-28.565670013427734,31.726789474487305,Left
3421.635009765625,22386,1,1757.0,1663.0,1849.0,1678.0,1611.0,1834.0,1761.0,1466.0,112.59123229980469,-28.565670013427734,31.726789474487305,Left
3424.1279296875,22387,1,1759.0,1931.0,1685.0,1689.0,1791.0,1741.0,1765.0,1323.0,112.59123229980469,-28.565670013427734,31.726789474487305,Left
3426.1279296875,22387,1,1757.0,1823.0,1690.0,1613.0,1787.0,1463.0,1763.0,1075.0,112.59123229980469,-28.565670013427734,31.726789474487305,Left
3428.1279296875,22387,1,1759.0,1637.0,1772.0,1610.0,1723.0,1315.0,1759.0,1053.0,112.59123229980469,-28.565670013427734,31.726789474487305,Left
3430.1279296875,22387,1,1765.0,1691.0,1813.0,1835.0,1779.0,1527.0,1759.0,959.0,112.59123229980469,-28.565670013427734,31.726789474487305,Left
3432.1279296875,22387,1,1757.0,1804.0,1771.0,1845.0,1715.0,1657.0,1763.0,1144.0,112.59123229980469,-28.565670013427734,31.726789474487305,Left
3433.7109375,22388,1,1753.0,1814.0,1768.0,1851.0,1989.0,1742.0,1758.0,1157.0,112.59123229980469,-28.565670013427734,31.726789474487305,Left
3435.7109375,22388,1,1762.0,1799.0,1764.0,1955.0,1561.0,2012.0,1766.0,1099.0,112.59123229980469,-28.565670013427734,31.726789474487305,Left
3437.7109375,22388,1,1755.0,1741.0,1753.0,1867.0,1664.0,2029.0,1759.0,1135.0,112.59123229980469,-28.565670013427734,31.726789474487305,Left
3439.7109375,22388,1,1763.0,1753.0,1745.0,1675.0,1783.0,1926.0,1764.0,1163.0,112.59123229980469,-28.565670013427734,31.726789474487305,Left
3441.7109375,22388,1,1763.0,1661.0,1811.0,1704.0,1737.0,1717.0,1757.0,1105.0,112.59123229980469,-28.565670013427734,31.726789474487305,Left
3443.899169921875,22389,1,1753.0,1607.0,1764.0,1674.0,1693.0,1581.0,1762.0,1115.0,112.59123229980469,-28.565670013427734,31.726789474487305,Left
3445.899169921875,22389,1,1763.0,1815.0,1733.0,1549.0,1749.0,1403.0,1757.0,1143.0,112.59123229980469,-28.565670013427734,31.726789474487305,Left
3447.899169921875,22389,1,1759.0,1852.0,1735.0,1623.0,1775.0,1459.0,1757.0,1127.0,112.59123229980469,-28.565670013427734,31.726789474487305,Left
3449.899169921875,22389,1,1757.0,1743.0,1718.0,1780.0,1736.0,1497.0,1759.0,1187.0,112.59123229980469,-28.565670013427734,31.726789474487305,Left
3451.899169921875,22389,1,1758.0,1885.0,1854.0,1911.0,1780.0,1799.0,1755.0,1369.0,112.59123229980469,-28.565670013427734,31.726789474487305,Left
3454.84619140625,22390,1,1755.0,1786.0,1742.0,1847.0,1747.0,1916.0,1763.0,1511.0,112.59123229980469,-28.565670013427734,31.726789474487305,Left
3456.84619140625,22390,1,1763.0,1735.0,1718.0,1919.0,1723.0,2053.0,1762.0,1608.0,112.59123229980469,-28.565670013427734,31.726789474487305,Left
3458.84619140625,22390,1,1762.0,1719.0,1775.0,1865.0,1788.0,2129.0,1765.0,2065.0,112.59123229980469,-28.565670013427734,31.726789474487305,Left
3460.84619140625,22390,1,1758.0,1919.0,1766.0,1737.0,1840.0,1935.0,1754.0,2031.0,112.59123229980469,-28.565670013427734,31.726789474487305,Left
3462.84619140625,22390,1,1761.0,1573.0,1703.0,1699.0,1749.0,1901.0,1759.0,2143.0,112.59123229980469,-28.565670013427734,31.726789474487305,Left
3464.22509765625,22391,1,1762.0,1751.0,1767.0,1673.0,1779.0,1823.0,1759.0,1996.0,112.59123229980469,-28.565670013427734,31.726789474487305,Left
3466.22509765625,22391,1,1759.0,1801.0,1799.0,1611.0,1723.0,1611.0,1758.0,1811.0,112.59123229980469,-28.565670013427734,31.726789474487305,Left
3468.22509765625,22391,1,1762.0,1853.0,1799.0,1575.0,1767.0,1528.0,1751.0,1758.0,112.59123229980469,-28.565670013427734,31.726789474487305,Left
3470.22509765625,22391,1,1762.0,1623.0,1773.0,1781.0,1756.0,1581.0,1763.0,1622.0,112.59123229980469,-28.565670013427734,31.726789474487305,Left
3472.22509765625,22391,1,1761.0,1891.0,1773.0,1892.0,1757.0,1773.0,1761.0,1618.0,112.59123229980469,-28.565670013427734,31.726789474487305,Left
3473.4951171875,22392,1,1765.0,1677.0,1737.0,1833.0,1735.0,1803.0,1758.0,1575.0,112.59123229980469,-28.565670013427734,31.726789474487305,Left
3475.4951171875,22392,1,1763.0,1897.0,1647.0,1931.0,1787.0,1959.0,1764.0,1716.0,112.41641998291016,-28.310728073120117,33.12021255493164,Left
3477.4951171875,22392,1,1753.0,1560.0,1753.0,1866.0,1735.0,2123.0,1759.0,1817.0,112.41641998291016,-28.310728073120117,33.12021255493164,Left
3479.4951171875,22392,1,1763.0,1727.0,1741.0,1751.0,1735.0,2077.0,1756.0,1899.0,112.41641998291016,-28.310728073120117,33.12021255493164,Left
3481.4951171875,22392,1,1761.0,1855.0,1783.0,1671.0,1763.0,1957.0,1763.0,1519.0,112.41641998291016,-28.310728073120117,33.12021255493164,Left
3485.27001953125,22393,1,1764.0,1717.0,1765.0,1718.0,1715.0,1785.0,1762.0,1319.0,112.41641998291016,-28.310728073120117,33.12021255493164,Left
3487.27001953125,22393,1,1751.0,1769.0,1770.0,1615.0,1823.0,1674.0,1757.0,1129.0,112.41641998291016,-28.310728073120117,33.12021255493164,Left
3489.27001953125,22393,1,1763.0,1849.0,1813.0,1641.0,1751.0,1493.0,1759.0,1464.0,112.41641998291016,-28.310728073120117,33.12021255493164,Left
3491.27001953125,22393,1,1759.0,1791.0,1757.0,1773.0,1814.0,1485.0,1759.0,1903.0,112.41641998291016,-28.310728073120117,33.12021255493164,Left
3493.27001953125,22393,1,1758.0,1840.0,1724.0,1851.0,1645.0,1702.0,1755.0,2213.0,112.41641998291016,-28.310728073120117,33.12021255493164,Left
3494.7041015625,22394,1,1759.0,1699.0,1764.0,1813.0,1698.0,1733.0,1763.0,2357.0,112.41641998291016,-28.310728073120117,33.12021255493164,Left
3496.7041015625,22394,1,1755.0,1645.0,1772.0,1891.0,1846.0,2056.0,1764.0,2555.0,112.41641998291016,-28.310728073120117,33.12021255493164,Left
3498.7041015625,22394,1,1763.0,1919.0,1719.0,1864.0,1757.0,2077.0,1764.0,2523.0,112.41641998291016,-28.310728073120117,33.12021255493164,Left
3500.7041015625,22394,1,1757.0,1741.0,1851.0,1810.0,1749.0,1866.0,1764.0,2259.0,112.41641998291016,-28.310728073120117,33.12021255493164,Left
3502.7041015625,22394,1,1749.0,1752.0,1695.0,1689.0,1806.0,1659.0,1764.0,2029.0,112.41641998291016,-28.310728073120117,33.12021255493164,Left
3503.893798828125,22395,1,1759.0,1691.0,1568.0,1634.0,1628.0,1511.0,1763.0,1827.0,112.41641998291016,-28.310728073120117,33.12021255493164,Left
3505.893798828125,22395,1,1763.0,1893.0,1767.0,1636.0,1797.0,1343.0,1761.0,1659.0,112.41641998291016,-28.310728073120117,33.12021255493164,Left
3507.893798828125,22395,1,1767.0,1839.0,1813.0,1635.0,1738.0,1325.0,1759.0,1701.0,112.41641998291016,-28.310728073120117,33.12021255493164,Left
3509.893798828125,22395,1,1756.0,1669.0,1752.0,1763.0,1755.0,1399.0,1764.0,1869.0,112.41641998291016,-28.310728073120117,33.12021255493164,Left
3511.893798828125,22395,1,1757.0,1767.0,1780.0,1855.0,1740.0,1533.0,1753.0,1699.0,112.41641998291016,-28.310728073120117,33.12021255493164,Left
3515.10107421875,22396,1,1749.0,1741.0,1773.0,1845.0,1763.0,1705.0,1759.0,1435.0,112.41641998291016,-28.310728073120117,33.12021255493164,Left
3517.10107421875,22396,1,1759.0,1752.0,1658.0,1899.0,1726.0,1912.0,1765.0,1501.0,112.41641998291016,-28.310728073120117,33.12021255493164,Left
3519.10107421875,22396,1,1765.0,1765.0,1750.0,1903.0,1717.0,1997.0,1766.0,1545.0,112.41641998291016,-28.310728073120117,33.12021255493164,Left
3521.10107421875,22396,1,1757.0,1811.0,1817.0,1723.0,1798.0,1869.0,1759.0,1479.0,112.41641998291016,-28.310728073120117,33.12021255493164,Left
3523.10107421875,22396,1,1758.0,1741.0,1819.0,1615.0,1784.0,1658.0,1763.0,1512.0,112.41641998291016,-28.310728073120117,33.12021255493164,Left
3523.64892578125,22397,1,1758.0,1759.0,1672.0,1651.0,1791.0,1617.0,1763.0,1389.0,112.41641998291016,-28.310728073120117,33.12021255493164,Left
3525.64892578125,22397,1,1762.0,1917.0,1788.0,1639.0,1719.0,1560.0,1759.0,1429.0,112.41641998291016,-28.310728073120117,33.12021255493164,Left
3527.64892578125,22397,1,1763.0,1591.0,1803.0,1615.0,1709.0,1431.0,1758.0,1506.0,112.41641998291016,-28.310728073120117,33.12021255493164,Left
3529.64892578125,22397,1,1752.0,1773.0,1758.0,1807.0,1748.0,1493.0,1753.0,1403.0,112.41641998291016,-28.310728073120117,33.12021255493164,Left
3531.64892578125,22397,1,1758.0,1723.0,1779.0,1849.0,1750.0,1735.0,1758.0,1529.0,112.41641998291016,-28.310728073120117,33.12021255493164,Left
3537.32080078125,22398,1,1765.0,1781.0,1774.0,1879.0,1759.0,1889.0,1763.0,1183.0,112.41641998291016,-28.310728073120117,33.12021255493164,Left
3539.32080078125,22398,1,1759.0,1769.0,1791.0,1787.0,1706.0,2087.0,1765.0,1250.0,112.41641998291016,-28.310728073120117,33.12021255493164,Left
3541.32080078125,22398,1,1752.0,1715.0,1710.0,1847.0,1907.0,2258.0,1763.0,1241.0,112.41641998291016,-28.310728073120117,33.12021255493164,Left
3543.32080078125,22398,1,1754.0,1639.0,1757.0,1736.0,1517.0,2249.0,1763.0,1263.0,112.60472869873047,-27.997922897338867,34.41236114501953,Left
3545.32080078125,22398,1,1757.0,1832.0,1772.0,1682.0,1786.0,2168.0,1765.0,1238.0,112.60472869873047,-27.997922897338867,34.41236114501953,Left
3545.565185546875,22399,1,1763.0,1753.0,1761.0,1711.0,1695.0,1955.0,1763.0,1677.0,112.60472869873047,-27.997922897338867,34.41236114501953,Left
3547.565185546875,22399,1,1759.0,1963.0,1768.0,1640.0,1669.0,1740.0,1762.0,1628.0,112.60472869873047,-27.997922897338867,34.41236114501953,Left
3549.565185546875,22399,1,1751.0,1791.0,1764.0,1634.0,1807.0,1571.0,1756.0,1542.0,112.60472869873047,-27.997922897338867,34.41236114501953,Left
3551.565185546875,22399,1,1757.0,1371.0,1737.0,1785.0,1657.0,1653.0,1759.0,1639.0,112.60472869873047,-27.997922897338867,34.41236114501953,Left
3553.565185546875,22399,1,1757.0,1934.0,1758.0,1875.0,1771.0,1774.0,1754.0,1833.0,112.60472869873047,-27.997922897338867,34.41236114501953,Left
3553.244140625,22400,1,1758.0,1871.0,1689.0,1829.0,1807.0,1779.0,1763.0,1835.0,112.60472869873047,-27.997922897338867,34.41236114501953,Left
3555.244140625,22400,1,1753.0,1673.0,1736.0,1845.0,1745.0,1916.0,1762.0,1919.0,112.60472869873047,-27.997922897338867,34.41236114501953,Left
3557.244140625,22400,1,1753.0,1693.0,1799.0,1903.0,1737.0,2096.0,1757.0,1956.0,112.60472869873047,-27.997922897338867,34.41236114501953,Left
3559.244140625,22400,1,1755.0,1797.0,1831.0,1735.0,1814.0,2011.0,1765.0,1865.0,112.60472869873047,-27.997922897338867,34.41236114501953,Left
3561.244140625,22400,1,1763.0,1756.0,1747.0,1689.0,1737.0,1815.0,1753.0,1751.0,112.60472869873047,-27.997922897338867,34.41236114501953,Left
3563.8759765625,22401,1,1757.0,1789.0,1798.0,1683.0,1775.0,1676.0,1765.0,1717.0,112.60472869873047,-27.997922897338867,34.41236114501953,Left
3565.8759765625,22401,1,1763.0,1699.0,1653.0,1641.0,1706.0,1637.0,1757.0,1642.0,112.60472869873047,-27.997922897338867,34.41236114501953,Left
3567.8759765625,22401,1,1759.0,1735.0,1755.0,1611.0,1756.0,1465.0,1757.0,1892.0,112.60472869873047,-27.997922897338867,34.41236114501953,Left
3569.8759765625,22401,1,1752.0,1907.0,1781.0,1787.0,1711.0,1567.0,1753.0,1711.0,112.60472869873047,-27.997922897338867,34.41236114501953,Left
3571.8759765625,22401,1,1759.0,1782.0,1759.0,1831.0,1723.0,1643.0,1763.0,1479.0,112.60472869873047,-27.997922897338867,34.41236114501953,Left
3575.52001953125,22402,1,1753.0,1833.0,1886.0,1831.0,1739.0,1644.0,1765.0,1619.0,112.60472869873047,-27.997922897338867,34.41236114501953,Left
3577.52001953125,22402,1,1759.0,1598.0,1721.0,1845.0,1811.0,1849.0,1755.0,1961.0,112.60472869873047,-27.997922897338867,34.41236114501953,Left
3579.52001953125,22402,1,1757.0,1822.0,1677.0,1895.0,1706.0,2098.0,1765.0,2037.0,112.60472869873047,-27.997922897338867,34.41236114501953,Left
3581.52001953125,22402,1,1759.0,1787.0,1686.0,1754.0,1807.0,2055.0,1753.0,1957.0,112.60472869873047,-27.997922897338867,34.41236114501953,Left
3583.52001953125,22402,1,1759.0,1809.0,1769.0,1657.0,1802.0,1807.0,1762.0,2222.0,112.60472869873047,-27.997922897338867,34.41236114501953,Left
3582.69873046875,22403,1,1763.0,1751.0,1800.0,1684.0,1691.0,1677.0,1753.0,2085.0,112.60472869873047,-27.997922897338867,34.41236114501953,Left
3584.69873046875,22403,1,1757.0,1685.0,1789.0,1676.0,1754.0,1493.0,1759.0,1971.0,112.60472869873047,-27.997922897338867,34.41236114501953,Left
3586.69873046875,22403,1,1759.0,1771.0,1805.0,1567.0,1824.0,1288.0,1757.0,1613.0,112.60472869873047,-27.997922897338867,34.41236114501953,Left
3588.69873046875,22403,1,1759.0,1781.0,1723.0,1799.0,1578.0,1480.0,1753.0,1287.0,112.60472869873047,-27.997922897338867,34.41236114501953,Left
3590.69873046875,22403,1,1761.0,1635.0,1747.0,1798.0,1756.0,1627.0,1759.0,1036.0,112.60472869873047,-27.997922897338867,34.41236114501953,Left
3594.25,22404,1,1762.0,1787.0,1759.0,1881.0,1689.0,1623.0,1763.0,974.0,112.60472869873047,-27.997922897338867,34.41236114501953,Left
3596.25,22404,1,1761.0,1784.0,1706.0,1840.0,1810.0,1725.0,1755.0,1161.0,112.60472869873047,-27.997922897338867,34.41236114501953,Left
3598.25,22404,1,1763.0,1679.0,1770.0,1905.0,1724.0,1904.0,1763.0,1515.0,112.60472869873047,-27.997922897338867,34.41236114501953,Left
3600.25,22404,1,1758.0,1805.0,1783.0,1802.0,1739.0,1903.0,1756.0,1383.0,112.60472869873047,-27.997922897338867,34.41236114501953,Left
3602.25,22404,1,1752.0,1722.0,1791.0,1683.0,1784.0,1787.0,1763.0,1523.0,112.60472869873047,-27.997922897338867,34.41236114501953,Left
3604.846923828125,22405,1,1758.0,1805.0,1736.0,1711.0,1781.0,1771.0,1762.0,1289.0,113.1351547241211,-27.52285385131836,35.709800720214844,Left
3606.846923828125,22405,1,1754.0,1867.0,1742.0,1679.0,1631.0,1599.0,1759.0,1239.0,113.1351547241211,-27.52285385131836,35.709800720214844,Left
3608.846923828125,22405,1,1753.0,1733.0,1764.0,1608.0,1773.0,1371.0,1757.0,1013.0,113.1351547241211,-27.52285385131836,35.709800720214844,Left
3610.846923828125,22405,1,1762.0,1750.0,1758.0,1759.0,1753.0,1384.0,1763.0,1209.0,113.1351547241211,-27.52285385131836,35.709800720214844,Left
3612.846923828125,22405,1,1757.0,1638.0,1803.0,1848.0,1756.0,1554.0,1759.0,1375.0,113.1351547241211,-27.52285385131836,35.709800720214844,Left
3627.123046875,22406,1,1757.0,1692.0,1769.0,1805.0,1689.0,1679.0,1756.0,1215.0,113.1351547241211,-27.52285385131836,35.709800720214844,Left
3629.123046875,22406,1,1757.0,1789.0,1797.0,1836.0,1769.0,1916.0,1763.0,1389.0,113.1351547241211,-27.52285385131836,35.709800720214844,Left
3631.123046875,22406,1,1763.0,1751.0,1711.0,1942.0,1789.0,2127.0,1765.0,1426.0,113.1351547241211,-27.52285385131836,35.709800720214844,Left
3633.123046875,22406,1,1759.0,1865.0,1728.0,1773.0,1715.0,2031.0,1765.0,1723.0,113.1351547241211,-27.52285385131836,35.709800720214844,Left
3635.123046875,22406,1,1752.0,1581.0,1599.0,1655.0,1648.0,1998.0,1759.0,1623.0,113.1351547241211,-27.52285385131836,35.709800720214844,Left
3628.4248046875,22407,1,1761.0,1816.0,1811.0,1725.0,1821.0,1877.0,1754.0,1617.0,113.1351547241211,-27.52285385131836,35.709800720214844,Left
3630.4248046875,22407,1,1759.0,1703.0,1757.0,1744.0,1695.0,1742.0,1757.0,1367.0,113.1351547241211,-27.52285385131836,35.709800720214844,Left
3632.4248046875,22407,1,1755.0,1861.0,1845.0,1627.0,1715.0,1469.0,1757.0,1391.0,113.1351547241211,-27.52285385131836,35.709800720214844,Left
3634.4248046875,22407,1,1757.0,1756.0,1672.0,1710.0,1759.0,1605.0,1759.0,1759.0,113.1351547241211,-27.52285385131836,35.709800720214844,Left
3636.4248046875,22407,1,1759.0,1803.0,1727.0,1813.0,1983.0,1767.0,1759.0,1834.0,113.1351547241211,-27.52285385131836,35.709800720214844,Left
3634.06298828125,22408,1,1755.0,1740.0,1721.0,1855.0,1703.0,1893.0,1753.0,2058.0,113.1351547241211,-27.52285385131836,35.709800720214844,Left
3636.06298828125,22408,1,1756.0,1759.0,1787.0,1883.0,1716.0,2005.0,1762.0,2097.0,113.1351547241211,-27.52285385131836,35.709800720214844,Left
3638.06298828125,22408,1,1763.0,1755.0,1739.0,1955.0,1751.0,2117.0,1763.0,2270.0,113.1351547241211,-27.52285385131836,35.709800720214844,Left
3640.06298828125,22408,1,1764.0,1812.0,1801.0,1807.0,1883.0,1947.0,1763.0,2076.0,113.1351547241211,-27.52285385131836,35.709800720214844,Left
3642.06298828125,22408,1,1753.0,1809.0,1757.0,1721.0,1711.0,1930.0,1759.0,1971.0,113.1351547241211,-27.52285385131836,35.709800720214844,Left
3645.7041015625,22409,1,1764.0,1639.0,1702.0,1636.0,1555.0,1816.0,1753.0,1801.0,113.1351547241211,-27.52285385131836,35.709800720214844,Left
3647.7041015625,22409,1,1751.0,1774.0,1769.0,1695.0,1721.0,1634.0,1756.0,1862.0,113.1351547241211,-27.52285385131836,35.709800720214844,Left
3649.7041015625,22409,1,1763.0,1797.0,1811.0,1637.0,1917.0,1308.0,1757.0,1785.0,113.1351547241211,-27.52285385131836,35.709800720214844,Left
3651.7041015625,22409,1,1763.0,1747.0,1787.0,1755.0,1691.0,1419.0,1759.0,1763.0,113.1351547241211,-27.52285385131836,35.709800720214844,Left
3653.7041015625,22409,1,1757.0,1749.0,1741.0,1759.0,1963.0,1591.0,1759.0,1765.0,113.1351547241211,-27.52285385131836,35.709800720214844,Left
3655.658935546875,22410,1,1763.0,1749.0,1751.0,1719.0,1691.0,1737.0,1759.0,2019.0,113.1351547241211,-27.52285385131836,35.709800720214844,Left
3657.658935546875,22410,1,1757.0,1756.0,1657.0,1803.0,1567.0,1863.0,1753.0,2229.0,113.1351547241211,-27.52285385131836,35.709800720214844,Left
3659.658935546875,22410,1,1757.0,1853.0,1733.0,1979.0,1999.0,2162.0,1755.0,2747.0,113.1351547241211,-27.52285385131836,35.709800720214844,Left
3661.658935546875,22410,1,1759.0,1783.0,1805.0,1788.0,1849.0,1992.0,1764.0,2424.0,113.1351547241211,-27.52285385131836,35.709800720214844,Left
3663.658935546875,22410,1,1762.0,1737.0,1770.0,1708.0,1495.0,1865.0,1763.0,2223.0,113.1351547241211,-27.52285385131836,35.709800720214844,Left
3667.920166015625,22411,1,1757.0,1737.0,1767.0,1690.0,1613.0,1657.0,1755.0,2056.0,113.1351547241211,-27.52285385131836,35.709800720214844,Left
3669.920166015625,22411,1,1763.0,1745.0,1723.0,1693.0,1704.0,1533.0,1757.0,1762.0,113.1351547241211,-27.52285385131836,35.709800720214844,Left
3671.920166015625,22411,1,1756.0,1694.0,1751.0,1547.0,1775.0,1343.0,1757.0,1481.0,113.1351547241211,-27.52285385131836,35.709800720214844,Left
3673.920166015625,22411,1,1763.0,1703.0,1779.0,1735.0,1737.0,1461.0,1753.0,1484.0,113.2214126586914,-27.13614273071289,37.3059196472168,Left
3675.920166015625,22411,1,1757.0,1771.0,1741.0,1789.0,1741.0,1684.0,1765.0,1595.0,113.2214126586914,-27.13614273071289,37.3059196472168,Left
3677.98291015625,22412,1,1761.0,1771.0,1754.0,1835.0,1912.0,1735.0,1759.0,1950.0,113.2214126586914,-27.13614273071289,37.3059196472168,Left
3679.98291015625,22412,1,1751.0,1715.0,1662.0,1805.0,1560.0,1889.0,1763.0,2019.0,113.2214126586914,-27.13614273071289,37.3059196472168,Left
3681.98291015625,22412,1,1761.0,1764.0,1745.0,1894.0,1748.0,2175.0,1765.0,2535.0,113.2214126586914,-27.13614273071289,37.3059196472168,Left
3683.98291015625,22412,1,1756.0,1739.0,1741.0,1773.0,1767.0,1992.0,1763.0,2323.0,113.2214126586914,-27.13614273071289,37.3059196472168,Left
3685.98291015625,22412,1,1759.0,1930.0,1787.0,1717.0,1735.0,1895.0,1758.0,2145.0,113.2214126586914,-27.13614273071289,37.3059196472168,Left
3683.0927734375,22413,1,1759.0,1510.0,1785.0,1592.0,1804.0,1637.0,1763.0,2065.0,113.2214126586914,-27.13614273071289,37.3059196472168,Left
3685.0927734375,22413,1,1757.0,1671.0,1720.0,1687.0,1791.0,1655.0,1758.0,1835.0,113.2214126586914,-27.13614273071289,37.3059196472168,Left
3687.0927734375,22413,1,1755.0,1747.0,1769.0,1599.0,1725.0,1371.0,1757.0,1607.0,113.2214126586914,-27.13614273071289,37.3059196472168,Left
3689.0927734375,22413,1,1759.0,1715.0,1779.0,1733.0,1706.0,1445.0,1759.0,1661.0,113.2214126586914,-27.13614273071289,37.3059196472168,Left
3691.0927734375,22413,1,1755.0,1771.0,1777.0,1789.0,1784.0,1483.0,1762.0,1819.0,113.2214126586914,-27.13614273071289,37.3059196472168,Left
3692.62109375,22414,1,1756.0,1803.0,1752.0,1814.0,1780.0,1612.0,1763.0,1835.0,113.2214126586914,-27.13614273071289,37.3059196472168,Left
3694.62109375,22414,1,1759.0,1763.0,1753.0,1804.0,1709.0,1779.0,1757.0,2139.0,113.2214126586914,-27.13614273071289,37.3059196472168,Left
3696.62109375,22414,1,1755.0,1749.0,1715.0,1927.0,1720.0,2184.0,1763.0,2151.0,113.2214126586914,-27.13614273071289,37.3059196472168,Left
3698.62109375,22414,1,1759.0,1755.0,1750.0,1784.0,1733.0,2155.0,1765.0,2013.0,113.2214126586914,-27.13614273071289,37.3059196472168,Left
3700.62109375,22414,1,1765.0,1743.0,1749.0,1743.0,1893.0,1940.0,1763.0,2012.0,113.2214126586914,-27.13614273071289,37.3059196472168,Left
3703.37109375,22415,1,1761.0,1804.0,1763.0,1687.0,1522.0,1749.0,1763.0,2565.0,113.2214126586914,-27.13614273071289,37.3059196472168,Left
3705.37109375,22415,1,1757.0,1949.0,1769.0,1695.0,1903.0,1683.0,1761.0,2323.0,113.2214126586914,-27.13614273071289,37.3059196472168,Left
