Timestamp_ms,Packet_Number,Trial_ID,Ch1,Ch2,Ch3,Ch4,Ch5,Ch6,Ch7,Ch8,Ch9,Ch10,Ch11,Label
2015.068115234375,252836,1,1763.0,1752.0,1748.0,1754.0,1739.0,1551.0,1775.0,1692.0,127.07259368896484,-4.9967732429504395,78.25496673583984,Left
2017.068115234375,252836,1,1763.0,1763.0,1685.0,1757.0,1755.0,1576.0,1791.0,1701.0,127.07259368896484,-4.9967732429504395,78.25496673583984,Left
2019.068115234375,252836,1,1765.0,1763.0,1752.0,1757.0,1752.0,1571.0,1788.0,1743.0,127.07259368896484,-4.9967732429504395,78.25496673583984,Left
2021.068115234375,252836,1,1754.0,1764.0,1740.0,1746.0,1757.0,1529.0,1805.0,1681.0,127.07259368896484,-4.9967732429504395,78.25496673583984,Left
2023.068115234375,252836,1,1763.0,1764.0,1625.0,1751.0,1751.0,1575.0,1809.0,1769.0,127.07259368896484,-4.9967732429504395,78.25496673583984,Left
2018.210205078125,252837,1,1755.0,1755.0,1687.0,1757.0,1753.0,1619.0,1819.0,1829.0,127.07259368896484,-4.9967732429504395,78.25496673583984,Left
2020.210205078125,252837,1,1755.0,1765.0,1805.0,1769.0,1757.0,1645.0,1817.0,1893.0,127.07259368896484,-4.9967732429504395,78.25496673583984,Left
2022.210205078125,252837,1,1749.0,1741.0,1870.0,1767.0,1752.0,2835.0,1819.0,1803.0,127.07259368896484,-4.9967732429504395,78.25496673583984,Left
2024.210205078125,252837,1,1765.0,1764.0,1836.0,1767.0,1749.0,1951.0,1815.0,1672.0,127.07259368896484,-4.9967732429504395,78.25496673583984,Left
2026.210205078125,252837,1,1759.0,1763.0,1763.0,1751.0,1751.0,1513.0,1807.0,1701.0,127.07259368896484,-4.9967732429504395,78.25496673583984,Left
2024.0198974609375,252838,1,1764.0,1748.0,1782.0,1759.0,1755.0,1559.0,1799.0,1691.0,127.07259368896484,-4.9967732429504395,78.25496673583984,Left
2026.0198974609375,252838,1,1762.0,1756.0,1757.0,1755.0,1745.0,1559.0,1802.0,1707.0,127.07259368896484,-4.9967732429504395,78.25496673583984,Left
2028.0198974609375,252838,1,1754.0,1765.0,1748.0,1755.0,1753.0,1559.0,1805.0,1750.0,127.07259368896484,-4.9967732429504395,78.25496673583984,Left
2030.0198974609375,252838,1,1767.0,1753.0,1691.0,1756.0,1756.0,1523.0,1801.0,1705.0,127.07259368896484,-4.9967732429504395,78.25496673583984,Left
2032.0198974609375,252838,1,1763.0,1762.0,1679.0,1753.0,1747.0,1561.0,1799.0,1772.0,127.07259368896484,-4.9967732429504395,78.25496673583984,Left
2037.1651611328125,252839,1,1753.0,1753.0,1738.0,1755.0,1756.0,1613.0,1797.0,1827.0,127.07259368896484,-4.9967732429504395,78.25496673583984,Left
2039.1651611328125,252839,1,1761.0,1758.0,1813.0,1771.0,1753.0,1635.0,1823.0,1877.0,127.07259368896484,-4.9967732429504395,78.25496673583984,Left
2041.1651611328125,252839,1,1763.0,1765.0,1846.0,1763.0,1749.0,2790.0,1814.0,1791.0,127.07259368896484,-4.9967732429504395,78.25496673583984,Left
2043.1651611328125,252839,1,1767.0,1765.0,1769.0,1763.0,1745.0,1807.0,1801.0,1645.0,127.07259368896484,-4.9967732429504395,78.25496673583984,Left
2045.1651611328125,252839,1,1755.0,1764.0,1701.0,1749.0,1741.0,1548.0,1783.0,1701.0,127.07259368896484,-4.9967732429504395,78.25496673583984,Left
2044.240966796875,252840,1,1753.0,1763.0,1811.0,1747.0,1755.0,1571.0,1779.0,1711.0,127.07259368896484,-4.9967732429504395,78.25496673583984,Left
2046.240966796875,252840,1,1763.0,1763.0,1804.0,1757.0,1753.0,1586.0,1810.0,1704.0,127.07259368896484,-4.9967732429504395,78.25496673583984,Left
2048.240966796875,252840,1,1765.0,1757.0,1727.0,1751.0,1741.0,1559.0,1813.0,1724.0,127.07259368896484,-4.9967732429504395,78.25496673583984,Left
2050.240966796875,252840,1,1754.0,1763.0,1705.0,1741.0,1745.0,1529.0,1786.0,1679.0,127.07259368896484,-4.9967732429504395,78.25496673583984,Left
2052.240966796875,252840,1,1754.0,1765.0,1768.0,1755.0,1762.0,1567.0,1779.0,1803.0,127.07259368896484,-4.9967732429504395,78.25496673583984,Left
2059.8740234375,252841,1,1759.0,1759.0,1669.0,1765.0,1747.0,1617.0,1771.0,1838.0,127.07259368896484,-4.9967732429504395,78.25496673583984,Left
2061.8740234375,252841,1,1749.0,1755.0,1787.0,1768.0,1757.0,1699.0,1768.0,1883.0,127.07259368896484,-4.9967732429504395,78.25496673583984,Left
2063.8740234375,252841,1,1759.0,1763.0,1831.0,1769.0,1754.0,2861.0,1763.0,1787.0,127.07259368896484,-4.9967732429504395,78.25496673583984,Left
2065.8740234375,252841,1,1765.0,1764.0,1823.0,1769.0,1752.0,1928.0,1763.0,1657.0,127.07259368896484,-4.9967732429504395,78.25496673583984,Left
2067.8740234375,252841,1,1763.0,1751.0,1787.0,1763.0,1748.0,1516.0,1762.0,1707.0,127.07259368896484,-4.9967732429504395,78.25496673583984,Left
2074.293212890625,252842,1,1761.0,1742.0,1811.0,1753.0,1755.0,1543.0,1753.0,1701.0,127.07259368896484,-4.9967732429504395,78.25496673583984,Left
2076.293212890625,252842,1,1763.0,1764.0,1828.0,1761.0,1759.0,1573.0,1763.0,1720.0,127.04630279541016,-5.0014777183532715,78.30742645263672,Left
2078.293212890625,252842,1,1754.0,1764.0,1735.0,1759.0,1759.0,1565.0,1771.0,1733.0,127.04630279541016,-5.0014777183532715,78.30742645263672,Left
2080.293212890625,252842,1,1763.0,1763.0,1555.0,1749.0,1750.0,1511.0,1773.0,1651.0,127.04630279541016,-5.0014777183532715,78.30742645263672,Left
2082.293212890625,252842,1,1753.0,1759.0,1618.0,1751.0,1759.0,1564.0,1769.0,1779.0,127.04630279541016,-5.0014777183532715,78.30742645263672,Left
2075.149169921875,252843,1,1759.0,1755.0,1707.0,1764.0,1759.0,1597.0,1767.0,1853.0,127.04630279541016,-5.0014777183532715,78.30742645263672,Left
2077.149169921875,252843,1,1765.0,1764.0,1861.0,1770.0,1753.0,1639.0,1767.0,1899.0,127.04630279541016,-5.0014777183532715,78.30742645263672,Left
2079.149169921875,252843,1,1765.0,1763.0,1928.0,1775.0,1752.0,2745.0,1767.0,1798.0,127.04630279541016,-5.0014777183532715,78.30742645263672,Left
2081.149169921875,252843,1,1764.0,1757.0,1819.0,1763.0,1749.0,1843.0,1752.0,1653.0,127.04630279541016,-5.0014777183532715,78.30742645263672,Left
2083.149169921875,252843,1,1765.0,1765.0,1775.0,1763.0,1753.0,1533.0,1746.0,1704.0,127.04630279541016,-5.0014777183532715,78.30742645263672,Left
2087.2431640625,252844,1,1753.0,1753.0,1789.0,1751.0,1751.0,1576.0,1738.0,1709.0,127.04630279541016,-5.0014777183532715,78.30742645263672,Left
2089.2431640625,252844,1,1763.0,1763.0,1705.0,1765.0,1749.0,1579.0,1723.0,1705.0,127.04630279541016,-5.0014777183532715,78.30742645263672,Left
2091.2431640625,252844,1,1765.0,1752.0,1710.0,1751.0,1751.0,1575.0,1722.0,1723.0,127.04630279541016,-5.0014777183532715,78.30742645263672,Left
2093.2431640625,252844,1,1759.0,1763.0,1703.0,1752.0,1748.0,1529.0,1726.0,1657.0,127.04630279541016,-5.0014777183532715,78.30742645263672,Left
2095.2431640625,252844,1,1763.0,1759.0,1673.0,1753.0,1753.0,1565.0,1723.0,1805.0,127.04630279541016,-5.0014777183532715,78.30742645263672,Left
2096.94384765625,252845,1,1753.0,1759.0,1727.0,1753.0,1742.0,1607.0,1709.0,1863.0,127.04630279541016,-5.0014777183532715,78.30742645263672,Left
2098.94384765625,252845,1,1763.0,1752.0,1789.0,1769.0,1761.0,1639.0,1704.0,1897.0,127.04630279541016,-5.0014777183532715,78.30742645263672,Left
2100.94384765625,252845,1,1764.0,1758.0,1849.0,1767.0,1757.0,2735.0,1723.0,1801.0,127.04630279541016,-5.0014777183532715,78.30742645263672,Left
2102.94384765625,252845,1,1763.0,1759.0,1833.0,1763.0,1755.0,1711.0,1723.0,1653.0,127.04630279541016,-5.0014777183532715,78.30742645263672,Left
2104.94384765625,252845,1,1757.0,1759.0,1775.0,1764.0,1743.0,1581.0,1716.0,1693.0,127.04630279541016,-5.0014777183532715,78.30742645263672,Left
2120.97412109375,252846,1,1763.0,1749.0,1721.0,1755.0,1740.0,1599.0,1721.0,1701.0,127.04630279541016,-5.0014777183532715,78.30742645263672,Left
2122.97412109375,252846,1,1743.0,1767.0,1748.0,1755.0,1755.0,1611.0,1738.0,1721.0,127.04630279541016,-5.0014777183532715,78.30742645263672,Left
2124.97412109375,252846,1,1764.0,1764.0,1717.0,1759.0,1752.0,1594.0,1741.0,1736.0,127.04630279541016,-5.0014777183532715,78.30742645263672,Left
2126.97412109375,252846,1,1763.0,1753.0,1704.0,1737.0,1757.0,1546.0,1747.0,1651.0,127.04630279541016,-5.0014777183532715,78.30742645263672,Left
2128.97412109375,252846,1,1763.0,1763.0,1693.0,1753.0,1756.0,1589.0,1749.0,1759.0,127.04630279541016,-5.0014777183532715,78.30742645263672,Left
2122.29833984375,252847,1,1757.0,1756.0,1733.0,1749.0,1753.0,1625.0,1719.0,1848.0,127.04630279541016,-5.0014777183532715,78.30742645263672,Left
2124.29833984375,252847,1,1762.0,1747.0,1865.0,1755.0,1752.0,1813.0,1734.0,1904.0,127.04630279541016,-5.0014777183532715,78.30742645263672,Left
2126.29833984375,252847,1,1757.0,1752.0,1928.0,1775.0,1752.0,2985.0,1717.0,1800.0,127.04630279541016,-5.0014777183532715,78.30742645263672,Left
2128.29833984375,252847,1,1764.0,1759.0,1651.0,1755.0,1755.0,1897.0,1733.0,1647.0,127.04630279541016,-5.0014777183532715,78.30742645263672,Left
2130.29833984375,252847,1,1755.0,1764.0,1614.0,1757.0,1755.0,1499.0,1737.0,1669.0,127.04630279541016,-5.0014777183532715,78.30742645263672,Left
2126.27099609375,252848,1,1751.0,1753.0,1813.0,1767.0,1751.0,1525.0,1735.0,1727.0,127.04630279541016,-5.0014777183532715,78.30742645263672,Left
2128.27099609375,252848,1,1753.0,1768.0,1801.0,1756.0,1753.0,1531.0,1724.0,1716.0,127.04630279541016,-5.0014777183532715,78.30742645263672,Left
2130.27099609375,252848,1,1751.0,1752.0,1816.0,1755.0,1763.0,1541.0,1737.0,1767.0,127.04630279541016,-5.0014777183532715,78.30742645263672,Left
2132.27099609375,252848,1,1764.0,1759.0,1753.0,1745.0,1759.0,1497.0,1726.0,1675.0,126.99578094482422,-5.006864547729492,78.25389099121094,Left
2134.27099609375,252848,1,1758.0,1752.0,1741.0,1757.0,1756.0,1560.0,1747.0,1784.0,126.99578094482422,-5.006864547729492,78.25389099121094,Left
2133.654052734375,252849,1,1764.0,1758.0,1646.0,1757.0,1754.0,1607.0,1733.0,1812.0,126.99578094482422,-5.006864547729492,78.25389099121094,Left
2135.654052734375,252849,1,1753.0,1765.0,1531.0,1762.0,1750.0,1673.0,1747.0,1881.0,126.99578094482422,-5.006864547729492,78.25389099121094,Left
2137.654052734375,252849,1,1763.0,1765.0,1843.0,1768.0,1755.0,2875.0,1754.0,1813.0,126.99578094482422,-5.006864547729492,78.25389099121094,Left
2139.654052734375,252849,1,1758.0,1759.0,1873.0,1765.0,1754.0,1763.0,1752.0,1669.0,126.99578094482422,-5.006864547729492,78.25389099121094,Left
2141.654052734375,252849,1,1763.0,1764.0,1881.0,1765.0,1755.0,1517.0,1751.0,1721.0,126.99578094482422,-5.006864547729492,78.25389099121094,Left
2144.22998046875,252850,1,1765.0,1765.0,1819.0,1767.0,1745.0,1559.0,1761.0,1693.0,126.99578094482422,-5.006864547729492,78.25389099121094,Left
2146.22998046875,252850,1,1756.0,1759.0,1662.0,1752.0,1757.0,1555.0,1769.0,1703.0,126.99578094482422,-5.006864547729492,78.25389099121094,Left
2148.22998046875,252850,1,1767.0,1752.0,1687.0,1753.0,1754.0,1560.0,1771.0,1715.0,126.99578094482422,-5.006864547729492,78.25389099121094,Left
2150.22998046875,252850,1,1765.0,1759.0,1695.0,1743.0,1755.0,1508.0,1768.0,1657.0,126.99578094482422,-5.006864547729492,78.25389099121094,Left
2152.22998046875,252850,1,1759.0,1767.0,1701.0,1756.0,1753.0,1567.0,1764.0,1789.0,126.99578094482422,-5.006864547729492,78.25389099121094,Left
2152.828857421875,252851,1,1762.0,1754.0,1727.0,1751.0,1749.0,1608.0,1763.0,1850.0,126.99578094482422,-5.006864547729492,78.25389099121094,Left
2154.828857421875,252851,1,1763.0,1763.0,1803.0,1766.0,1757.0,1779.0,1753.0,1900.0,126.99578094482422,-5.006864547729492,78.25389099121094,Left
2156.828857421875,252851,1,1755.0,1752.0,1843.0,1773.0,1739.0,2829.0,1739.0,1797.0,126.99578094482422,-5.006864547729492,78.25389099121094,Left
2158.828857421875,252851,1,1763.0,1767.0,1838.0,1773.0,1741.0,1771.0,1728.0,1655.0,126.99578094482422,-5.006864547729492,78.25389099121094,Left
2160.828857421875,252851,1,1767.0,1757.0,1787.0,1762.0,1755.0,1523.0,1741.0,1687.0,126.99578094482422,-5.006864547729492,78.25389099121094,Left
2173.0009765625,252852,1,1762.0,1765.0,1747.0,1738.0,1755.0,1558.0,1736.0,1707.0,126.99578094482422,-5.006864547729492,78.25389099121094,Left
2175.0009765625,252852,1,1765.0,1753.0,1749.0,1753.0,1755.0,1555.0,1725.0,1719.0,126.99578094482422,-5.006864547729492,78.25389099121094,Left
2177.0009765625,252852,1,1763.0,1762.0,1714.0,1783.0,1751.0,1547.0,1739.0,1740.0,126.99578094482422,-5.006864547729492,78.25389099121094,Left
2179.0009765625,252852,1,1766.0,1752.0,1689.0,1755.0,1751.0,1519.0,1723.0,1675.0,126.99578094482422,-5.006864547729492,78.25389099121094,Left
2181.0009765625,252852,1,1755.0,1753.0,1805.0,1741.0,1751.0,1575.0,1739.0,1802.0,126.99578094482422,-5.006864547729492,78.25389099121094,Left
2173.660888671875,252853,1,1767.0,1767.0,1757.0,1759.0,1747.0,1613.0,1745.0,1843.0,126.99578094482422,-5.006864547729492,78.25389099121094,Left
2175.660888671875,252853,1,1755.0,1765.0,1691.0,1767.0,1753.0,1693.0,1750.0,1894.0,126.99578094482422,-5.006864547729492,78.25389099121094,Left
2177.660888671875,252853,1,1766.0,1764.0,1622.0,1765.0,1753.0,2955.0,1757.0,1785.0,126.99578094482422,-5.006864547729492,78.25389099121094,Left
2179.660888671875,252853,1,1754.0,1757.0,1887.0,1770.0,1749.0,1925.0,1759.0,1657.0,126.99578094482422,-5.006864547729492,78.25389099121094,Left
2181.660888671875,252853,1,1743.0,1763.0,1833.0,1755.0,1743.0,1485.0,1751.0,1691.0,126.99578094482422,-5.006864547729492,78.25389099121094,Left
2186.60400390625,252854,1,1757.0,1771.0,1787.0,1763.0,1749.0,1543.0,1753.0,1723.0,126.99578094482422,-5.006864547729492,78.25389099121094,Left
2188.60400390625,252854,1,1762.0,1765.0,1741.0,1764.0,1759.0,1545.0,1749.0,1717.0,126.99578094482422,-5.006864547729492,78.25389099121094,Left
2190.60400390625,252854,1,1765.0,1763.0,1694.0,1755.0,1757.0,1551.0,1748.0,1735.0,126.99578094482422,-5.006864547729492,78.25389099121094,Left
2192.60400390625,252854,1,1764.0,1763.0,1707.0,1749.0,1755.0,1501.0,1739.0,1669.0,126.99578094482422,-5.006864547729492,78.25389099121094,Left
2194.60400390625,252854,1,1763.0,1763.0,1719.0,1757.0,1747.0,1554.0,1747.0,1771.0,126.99578094482422,-5.006864547729492,78.25389099121094,Left
2197.041015625,252855,1,1758.0,1763.0,1813.0,1747.0,1752.0,1598.0,1733.0,1848.0,126.99578094482422,-5.006864547729492,78.25389099121094,Left
2199.041015625,252855,1,1753.0,1764.0,1867.0,1765.0,1747.0,1709.0,1736.0,1895.0,127.0551528930664,-4.989960193634033,78.12907409667969,Left
2201.041015625,252855,1,1755.0,1749.0,1774.0,1770.0,1741.0,3021.0,1747.0,1801.0,127.0551528930664,-4.989960193634033,78.12907409667969,Left
2203.041015625,252855,1,1764.0,1765.0,1629.0,1767.0,1767.0,1711.0,1752.0,1645.0,127.0551528930664,-4.989960193634033,78.12907409667969,Left
2205.041015625,252855,1,1764.0,1759.0,1765.0,1755.0,1759.0,1493.0,1745.0,1707.0,127.0551528930664,-4.989960193634033,78.12907409667969,Left
2203.505126953125,252856,1,1758.0,1758.0,1832.0,1752.0,1756.0,1541.0,1755.0,1695.0,127.0551528930664,-4.989960193634033,78.12907409667969,Left
2205.505126953125,252856,1,1767.0,1763.0,1781.0,1764.0,1733.0,1555.0,1755.0,1711.0,127.0551528930664,-4.989960193634033,78.12907409667969,Left
2207.505126953125,252856,1,1753.0,1759.0,1734.0,1748.0,1758.0,1549.0,1768.0,1755.0,127.0551528930664,-4.989960193634033,78.12907409667969,Left
2209.505126953125,252856,1,1764.0,1765.0,1700.0,1754.0,1756.0,1508.0,1768.0,1691.0,127.0551528930664,-4.989960193634033,78.12907409667969,Left
2211.505126953125,252856,1,1765.0,1762.0,1700.0,1759.0,1752.0,1553.0,1765.0,1779.0,127.0551528930664,-4.989960193634033,78.12907409667969,Left
2215.7890625,252857,1,1765.0,1773.0,1752.0,1759.0,1752.0,1607.0,1747.0,1815.0,127.0551528930664,-4.989960193634033,78.12907409667969,Left
2217.7890625,252857,1,1757.0,1759.0,1805.0,1764.0,1755.0,1647.0,1772.0,1892.0,127.0551528930664,-4.989960193634033,78.12907409667969,Left
2219.7890625,252857,1,1763.0,1753.0,1875.0,1773.0,1740.0,2750.0,1779.0,1817.0,127.0551528930664,-4.989960193634033,78.12907409667969,Left
2221.7890625,252857,1,1765.0,1763.0,1789.0,1763.0,1747.0,1774.0,1773.0,1651.0,127.0551528930664,-4.989960193634033,78.12907409667969,Left
2223.7890625,252857,1,1765.0,1763.0,1699.0,1759.0,1752.0,1525.0,1765.0,1703.0,127.0551528930664,-4.989960193634033,78.12907409667969,Left
2224.303955078125,252858,1,1766.0,1763.0,1756.0,1759.0,1741.0,1553.0,1768.0,1719.0,127.0551528930664,-4.989960193634033,78.12907409667969,Left
2226.303955078125,252858,1,1754.0,1748.0,1835.0,1750.0,1755.0,1573.0,1757.0,1735.0,127.0551528930664,-4.989960193634033,78.12907409667969,Left
2228.303955078125,252858,1,1767.0,1765.0,1852.0,1767.0,1747.0,1563.0,1763.0,1753.0,127.0551528930664,-4.989960193634033,78.12907409667969,Left
2230.303955078125,252858,1,1757.0,1763.0,1661.0,1751.0,1753.0,1532.0,1751.0,1637.0,127.0551528930664,-4.989960193634033,78.12907409667969,Left
2232.303955078125,252858,1,1766.0,1765.0,1471.0,1739.0,1751.0,1589.0,1749.0,1771.0,127.0551528930664,-4.989960193634033,78.12907409667969,Left
2234.211181640625,252859,1,1764.0,1765.0,1765.0,1751.0,1755.0,1624.0,1759.0,1827.0,127.0551528930664,-4.989960193634033,78.12907409667969,Left
2236.211181640625,252859,1,1763.0,1761.0,1848.0,1757.0,1721.0,1803.0,1759.0,1885.0,127.0551528930664,-4.989960193634033,78.12907409667969,Left
2238.211181640625,252859,1,1763.0,1763.0,1873.0,1791.0,1755.0,2927.0,1766.0,1821.0,127.0551528930664,-4.989960193634033,78.12907409667969,Left
2240.211181640625,252859,1,1764.0,1763.0,1813.0,1767.0,1749.0,1642.0,1762.0,1659.0,127.0551528930664,-4.989960193634033,78.12907409667969,Left
2242.211181640625,252859,1,1763.0,1763.0,1849.0,1758.0,1757.0,1541.0,1753.0,1695.0,127.0551528930664,-4.989960193634033,78.12907409667969,Left
2251.431884765625,252860,1,1762.0,1759.0,1753.0,1736.0,1753.0,1557.0,1765.0,1733.0,127.0551528930664,-4.989960193634033,78.12907409667969,Left
2253.431884765625,252860,1,1763.0,1757.0,1657.0,1771.0,1746.0,1571.0,1770.0,1725.0,127.0551528930664,-4.989960193634033,78.12907409667969,Left
2255.431884765625,252860,1,1765.0,1765.0,1737.0,1763.0,1755.0,1563.0,1770.0,1735.0,127.0551528930664,-4.989960193634033,78.12907409667969,Left
2257.431884765625,252860,1,1762.0,1764.0,1499.0,1750.0,1755.0,1519.0,1785.0,1651.0,127.0551528930664,-4.989960193634033,78.12907409667969,Left
2259.431884765625,252860,1,1764.0,1766.0,1739.0,1763.0,1757.0,1567.0,1791.0,1780.0,127.0551528930664,-4.989960193634033,78.12907409667969,Left
2255.01806640625,252861,1,1757.0,1751.0,1817.0,1755.0,1755.0,1583.0,1801.0,1849.0,127.0551528930664,-4.989960193634033,78.12907409667969,Left
2257.01806640625,252861,1,1754.0,1759.0,1868.0,1766.0,1753.0,1687.0,1797.0,1903.0,127.0551528930664,-4.989960193634033,78.12907409667969,Left
2259.01806640625,252861,1,1763.0,1763.0,1882.0,1767.0,1748.0,2859.0,1827.0,1797.0,127.0551528930664,-4.989960193634033,78.12907409667969,Left
2261.01806640625,252861,1,1766.0,1763.0,1849.0,1765.0,1755.0,1696.0,1827.0,1659.0,127.0551528930664,-4.989960193634033,78.12907409667969,Left
2263.01806640625,252861,1,1766.0,1759.0,1791.0,1766.0,1756.0,1545.0,1829.0,1707.0,127.12242889404297,-5.003276348114014,77.99702453613281,Left
2278.6171875,252862,1,1765.0,1739.0,1716.0,1753.0,1752.0,1567.0,1833.0,1708.0,127.12242889404297,-5.003276348114014,77.99702453613281,Left
2280.6171875,252862,1,1753.0,1765.0,1669.0,1763.0,1755.0,1577.0,1829.0,1701.0,127.12242889404297,-5.003276348114014,77.99702453613281,Left
2282.6171875,252862,1,1765.0,1771.0,1721.0,1756.0,1753.0,1570.0,1817.0,1735.0,127.12242889404297,-5.003276348114014,77.99702453613281,Left
2284.6171875,252862,1,1763.0,1765.0,1703.0,1743.0,1757.0,1525.0,1827.0,1673.0,127.12242889404297,-5.003276348114014,77.99702453613281,Left
2286.6171875,252862,1,1763.0,1765.0,1645.0,1756.0,1755.0,1573.0,1834.0,1791.0,127.12242889404297,-5.003276348114014,77.99702453613281,Left
2279.339111328125,252863,1,1763.0,1767.0,1759.0,1756.0,1755.0,1613.0,1817.0,1827.0,127.12242889404297,-5.003276348114014,77.99702453613281,Left
2281.339111328125,252863,1,1765.0,1761.0,1815.0,1771.0,1755.0,1843.0,1830.0,1909.0,127.12242889404297,-5.003276348114014,77.99702453613281,Left
2283.339111328125,252863,1,1765.0,1751.0,1889.0,1772.0,1747.0,3032.0,1844.0,1792.0,127.12242889404297,-5.003276348114014,77.99702453613281,Left
2285.339111328125,252863,1,1763.0,1763.0,1895.0,1769.0,1751.0,1635.0,1864.0,1656.0,127.12242889404297,-5.003276348114014,77.99702453613281,Left
2287.339111328125,252863,1,1757.0,1763.0,1788.0,1771.0,1748.0,1501.0,1851.0,1693.0,127.12242889404297,-5.003276348114014,77.99702453613281,Left
2290.27099609375,252864,1,1755.0,1763.0,1687.0,1751.0,1735.0,1544.0,1849.0,1693.0,127.12242889404297,-5.003276348114014,77.99702453613281,Left
2292.27099609375,252864,1,1754.0,1763.0,1591.0,1752.0,1751.0,1548.0,1850.0,1701.0,127.12242889404297,-5.003276348114014,77.99702453613281,Left
2294.27099609375,252864,1,1753.0,1765.0,1755.0,1759.0,1755.0,1547.0,1839.0,1737.0,127.12242889404297,-5.003276348114014,77.99702453613281,Left
2296.27099609375,252864,1,1763.0,1763.0,1683.0,1762.0,1755.0,1513.0,1827.0,1675.0,127.12242889404297,-5.003276348114014,77.99702453613281,Left
2298.27099609375,252864,1,1761.0,1752.0,1684.0,1741.0,1755.0,1563.0,1833.0,1767.0,127.12242889404297,-5.003276348114014,77.99702453613281,Left
2294.235107421875,252865,1,1753.0,1752.0,1757.0,1751.0,1747.0,1598.0,1843.0,1861.0,127.12242889404297,-5.003276348114014,77.99702453613281,Left
2296.235107421875,252865,1,1765.0,1751.0,1853.0,1771.0,1753.0,1723.0,1818.0,1935.0,127.12242889404297,-5.003276348114014,77.99702453613281,Left
2298.235107421875,252865,1,1766.0,1763.0,1874.0,1779.0,1748.0,2980.0,1801.0,1822.0,127.12242889404297,-5.003276348114014,77.99702453613281,Left
2300.235107421875,252865,1,1762.0,1759.0,1835.0,1766.0,1749.0,1663.0,1779.0,1655.0,127.12242889404297,-5.003276348114014,77.99702453613281,Left
2302.235107421875,252865,1,1754.0,1764.0,1791.0,1741.0,1749.0,1514.0,1785.0,1699.0,127.12242889404297,-5.003276348114014,77.99702453613281,Left
2303.56396484375,252866,1,1763.0,1759.0,1767.0,1759.0,1753.0,1531.0,1775.0,1688.0,127.12242889404297,-5.003276348114014,77.99702453613281,Left
2305.56396484375,252866,1,1740.0,1757.0,1741.0,1747.0,1752.0,1555.0,1784.0,1693.0,127.12242889404297,-5.003276348114014,77.99702453613281,Left
2307.56396484375,252866,1,1762.0,1759.0,1761.0,1755.0,1757.0,1543.0,1789.0,1757.0,127.12242889404297,-5.003276348114014,77.99702453613281,Left
2309.56396484375,252866,1,1766.0,1765.0,1673.0,1751.0,1753.0,1517.0,1801.0,1678.0,127.12242889404297,-5.003276348114014,77.99702453613281,Left
2311.56396484375,252866,1,1765.0,1763.0,1573.0,1758.0,1757.0,1573.0,1790.0,1781.0,127.12242889404297,-5.003276348114014,77.99702453613281,Left
2313.97998046875,252867,1,1763.0,1746.0,1783.0,1752.0,1753.0,1610.0,1755.0,1864.0,127.12242889404297,-5.003276348114014,77.99702453613281,Left
2315.97998046875,252867,1,1759.0,1750.0,1749.0,1768.0,1753.0,1781.0,1763.0,1895.0,127.12242889404297,-5.003276348114014,77.99702453613281,Left
2317.97998046875,252867,1,1763.0,1762.0,1877.0,1755.0,1751.0,2935.0,1775.0,1791.0,127.12242889404297,-5.003276348114014,77.99702453613281,Left
2319.97998046875,252867,1,1763.0,1765.0,1939.0,1771.0,1752.0,1662.0,1773.0,1629.0,127.12242889404297,-5.003276348114014,77.99702453613281,Left
2321.97998046875,252867,1,1754.0,1759.0,1852.0,1755.0,1749.0,1516.0,1785.0,1695.0,127.12242889404297,-5.003276348114014,77.99702453613281,Left
2325.879150390625,252868,1,1757.0,1745.0,1948.0,1756.0,1756.0,1557.0,1772.0,1725.0,127.12242889404297,-5.003276348114014,77.99702453613281,Left
2327.879150390625,252868,1,1767.0,1755.0,1675.0,1753.0,1757.0,1553.0,1803.0,1715.0,127.12591552734375,-5.01000452041626,77.88294982910156,Left
2329.879150390625,252868,1,1763.0,1752.0,1719.0,1756.0,1747.0,1557.0,1805.0,1706.0,127.12591552734375,-5.01000452041626,77.88294982910156,Left
2331.879150390625,252868,1,1763.0,1765.0,1307.0,1747.0,1752.0,1518.0,1807.0,1605.0,127.12591552734375,-5.01000452041626,77.88294982910156,Left
2333.879150390625,252868,1,1757.0,1753.0,1698.0,1753.0,1756.0,1571.0,1789.0,1799.0,127.12591552734375,-5.01000452041626,77.88294982910156,Left
2334.2568359375,252869,1,1765.0,1756.0,1813.0,1767.0,1759.0,1609.0,1759.0,1849.0,127.12591552734375,-5.01000452041626,77.88294982910156,Left
2336.2568359375,252869,1,1763.0,1751.0,1853.0,1763.0,1755.0,1807.0,1768.0,1927.0,127.12591552734375,-5.01000452041626,77.88294982910156,Left
2338.2568359375,252869,1,1763.0,1765.0,1895.0,1780.0,1753.0,2919.0,1768.0,1827.0,127.12591552734375,-5.01000452041626,77.88294982910156,Left
2340.2568359375,252869,1,1763.0,1762.0,1875.0,1787.0,1752.0,1686.0,1753.0,1645.0,127.12591552734375,-5.01000452041626,77.88294982910156,Left
2342.2568359375,252869,1,1766.0,1754.0,1812.0,1753.0,1751.0,1508.0,1762.0,1701.0,127.12591552734375,-5.01000452041626,77.88294982910156,Left
2349.904052734375,252870,1,1755.0,1769.0,1759.0,1742.0,1741.0,1553.0,1743.0,1711.0,127.12591552734375,-5.01000452041626,77.88294982910156,Left
2351.904052734375,252870,1,1753.0,1765.0,1707.0,1763.0,1753.0,1559.0,1752.0,1702.0,127.12591552734375,-5.01000452041626,77.88294982910156,Left
2353.904052734375,252870,1,1753.0,1764.0,1695.0,1749.0,1756.0,1553.0,1747.0,1747.0,127.12591552734375,-5.01000452041626,77.88294982910156,Left
2355.904052734375,252870,1,1759.0,1759.0,1724.0,1749.0,1747.0,1526.0,1751.0,1657.0,127.12591552734375,-5.01000452041626,77.88294982910156,Left
2357.904052734375,252870,1,1766.0,1765.0,1647.0,1756.0,1755.0,1575.0,1752.0,1784.0,127.12591552734375,-5.01000452041626,77.88294982910156,Left
2354.85009765625,252871,1,1762.0,1763.0,1708.0,1771.0,1757.0,1612.0,1756.0,1849.0,127.12591552734375,-5.01000452041626,77.88294982910156,Left
2356.85009765625,252871,1,1766.0,1763.0,1805.0,1758.0,1749.0,1827.0,1773.0,1909.0,127.12591552734375,-5.01000452041626,77.88294982910156,Left
2358.85009765625,252871,1,1749.0,1752.0,1885.0,1765.0,1757.0,3023.0,1784.0,1805.0,127.12591552734375,-5.01000452041626,77.88294982910156,Left
2360.85009765625,252871,1,1755.0,1762.0,1823.0,1773.0,1747.0,1567.0,1780.0,1638.0,127.12591552734375,-5.01000452041626,77.88294982910156,Left
2362.85009765625,252871,1,1763.0,1759.0,1773.0,1767.0,1753.0,1502.0,1781.0,1700.0,127.12591552734375,-5.01000452041626,77.88294982910156,Left
2365.203125,252872,1,1765.0,1751.0,1765.0,1757.0,1768.0,1525.0,1774.0,1708.0,127.12591552734375,-5.01000452041626,77.88294982910156,Left
2367.203125,252872,1,1765.0,1758.0,1751.0,1749.0,1767.0,1548.0,1767.0,1723.0,127.12591552734375,-5.01000452041626,77.88294982910156,Left
2369.203125,252872,1,1765.0,1761.0,1727.0,1757.0,1748.0,1543.0,1756.0,1749.0,127.12591552734375,-5.01000452041626,77.88294982910156,Left
2371.203125,252872,1,1759.0,1763.0,1688.0,1757.0,1756.0,1527.0,1739.0,1647.0,127.12591552734375,-5.01000452041626,77.88294982910156,Left
2373.203125,252872,1,1754.0,1763.0,1708.0,1741.0,1753.0,1577.0,1773.0,1784.0,127.12591552734375,-5.01000452041626,77.88294982910156,Left
2383.10302734375,252873,1,1764.0,1763.0,1704.0,1755.0,1751.0,1613.0,1773.0,1818.0,127.12591552734375,-5.01000452041626,77.88294982910156,Left
2385.10302734375,252873,1,1755.0,1763.0,1755.0,1769.0,1743.0,1873.0,1776.0,1902.0,127.12591552734375,-5.01000452041626,77.88294982910156,Left
2387.10302734375,252873,1,1764.0,1765.0,1797.0,1775.0,1751.0,2964.0,1775.0,1807.0,127.12591552734375,-5.01000452041626,77.88294982910156,Left
2389.10302734375,252873,1,1763.0,1763.0,1894.0,1773.0,1756.0,1595.0,1769.0,1659.0,127.12591552734375,-5.01000452041626,77.88294982910156,Left
2391.10302734375,252873,1,1761.0,1763.0,1723.0,1758.0,1753.0,1517.0,1767.0,1692.0,127.12591552734375,-5.01000452041626,77.88294982910156,Left
2388.010009765625,252874,1,1766.0,1757.0,1802.0,1767.0,1749.0,1549.0,1766.0,1725.0,127.12591552734375,-5.01000452041626,77.88294982910156,Left
2390.010009765625,252874,1,1767.0,1757.0,1741.0,1755.0,1763.0,1545.0,1747.0,1742.0,127.12591552734375,-5.01000452041626,77.88294982910156,Left
2392.010009765625,252874,1,1758.0,1749.0,1703.0,1742.0,1756.0,1549.0,1741.0,1735.0,127.12591552734375,-5.01000452041626,77.88294982910156,Left
2394.010009765625,252874,1,1765.0,1753.0,1699.0,1748.0,1751.0,1530.0,1735.0,1651.0,127.16801452636719,-4.987904071807861,77.78335571289062,Left
2396.010009765625,252874,1,1753.0,1761.0,1771.0,1753.0,1756.0,1576.0,1747.0,1799.0,127.16801452636719,-4.987904071807861,77.78335571289062,Left
2396.341064453125,252875,1,1764.0,1747.0,1789.0,1753.0,1751.0,1615.0,1753.0,1836.0,127.16801452636719,-4.987904071807861,77.78335571289062,Left
2398.341064453125,252875,1,1763.0,1753.0,1767.0,1771.0,1746.0,1903.0,1772.0,1909.0,127.16801452636719,-4.987904071807861,77.78335571289062,Left
2400.341064453125,252875,1,1763.0,1752.0,1787.0,1769.0,1752.0,2999.0,1773.0,1807.0,127.16801452636719,-4.987904071807861,77.78335571289062,Left
2402.341064453125,252875,1,1763.0,1751.0,1843.0,1769.0,1742.0,1533.0,1781.0,1662.0,127.16801452636719,-4.987904071807861,77.78335571289062,Left
2404.341064453125,252875,1,1763.0,1763.0,1811.0,1768.0,1756.0,1503.0,1764.0,1707.0,127.16801452636719,-4.987904071807861,77.78335571289062,Left
2409.115966796875,252876,1,1763.0,1756.0,1677.0,1752.0,1741.0,1553.0,1755.0,1677.0,127.16801452636719,-4.987904071807861,77.78335571289062,Left
2411.115966796875,252876,1,1752.0,1763.0,1717.0,1764.0,1757.0,1548.0,1761.0,1693.0,127.16801452636719,-4.987904071807861,77.78335571289062,Left
2413.115966796875,252876,1,1753.0,1751.0,1711.0,1755.0,1746.0,1545.0,1755.0,1737.0,127.16801452636719,-4.987904071807861,77.78335571289062,Left
2415.115966796875,252876,1,1765.0,1763.0,1877.0,1771.0,1757.0,1528.0,1736.0,1685.0,127.16801452636719,-4.987904071807861,77.78335571289062,Left
2417.115966796875,252876,1,1762.0,1763.0,1815.0,1757.0,1748.0,1571.0,1746.0,1812.0,127.16801452636719,-4.987904071807861,77.78335571289062,Left
2417.379150390625,252877,1,1763.0,1763.0,1628.0,1751.0,1743.0,1612.0,1749.0,1848.0,127.16801452636719,-4.987904071807861,77.78335571289062,Left
2419.379150390625,252877,1,1771.0,1754.0,1707.0,1752.0,1743.0,1994.0,1743.0,1882.0,127.16801452636719,-4.987904071807861,77.78335571289062,Left
2421.379150390625,252877,1,1757.0,1765.0,1755.0,1749.0,1740.0,3007.0,1735.0,1804.0,127.16801452636719,-4.987904071807861,77.78335571289062,Left
2423.379150390625,252877,1,1763.0,1765.0,1867.0,1767.0,1753.0,1567.0,1737.0,1651.0,127.16801452636719,-4.987904071807861,77.78335571289062,Left
2425.379150390625,252877,1,1763.0,1759.0,1865.0,1763.0,1752.0,1512.0,1727.0,1685.0,127.16801452636719,-4.987904071807861,77.78335571289062,Left
2424.317138671875,252878,1,1758.0,1763.0,1876.0,1756.0,1747.0,1540.0,1720.0,1720.0,127.16801452636719,-4.987904071807861,77.78335571289062,Left
2426.317138671875,252878,1,1766.0,1748.0,1392.0,1749.0,1742.0,1554.0,1717.0,1693.0,127.16801452636719,-4.987904071807861,77.78335571289062,Left
2428.317138671875,252878,1,1765.0,1763.0,1950.0,1768.0,1752.0,1547.0,1717.0,1776.0,127.16801452636719,-4.987904071807861,77.78335571289062,Left
2430.317138671875,252878,1,1764.0,1763.0,1720.0,1755.0,1757.0,1519.0,1701.0,1678.0,127.16801452636719,-4.987904071807861,77.78335571289062,Left
2432.317138671875,252878,1,1764.0,1752.0,1533.0,1725.0,1755.0,1565.0,1708.0,1811.0,127.16801452636719,-4.987904071807861,77.78335571289062,Left
2435.177978515625,252879,1,1763.0,1761.0,1531.0,1770.0,1755.0,1614.0,1699.0,1787.0,127.16801452636719,-4.987904071807861,77.78335571289062,Left
2437.177978515625,252879,1,1753.0,1766.0,1971.0,1754.0,1741.0,1965.0,1695.0,1884.0,127.16801452636719,-4.987904071807861,77.78335571289062,Left
2439.177978515625,252879,1,1759.0,1766.0,2120.0,1748.0,1752.0,2894.0,1691.0,1821.0,127.16801452636719,-4.987904071807861,77.78335571289062,Left
2441.177978515625,252879,1,1763.0,1752.0,1950.0,1801.0,1755.0,1564.0,1694.0,1657.0,127.16801452636719,-4.987904071807861,77.78335571289062,Left
2443.177978515625,252879,1,1765.0,1759.0,1523.0,1751.0,1757.0,1545.0,1703.0,1682.0,127.16801452636719,-4.987904071807861,77.78335571289062,Left
2445.8330078125,252880,1,1753.0,1759.0,1820.0,1758.0,1755.0,1559.0,1695.0,1691.0,127.16801452636719,-4.987904071807861,77.78335571289062,Left
2447.8330078125,252880,1,1750.0,1740.0,1659.0,1745.0,1755.0,1560.0,1705.0,1721.0,127.16801452636719,-4.987904071807861,77.78335571289062,Left
2449.8330078125,252880,1,1758.0,1753.0,1657.0,1757.0,1757.0,1561.0,1709.0,1758.0,127.16801452636719,-4.987904071807861,77.78335571289062,Left
2451.8330078125,252880,1,1763.0,1752.0,1735.0,1743.0,1751.0,1542.0,1705.0,1654.0,127.16801452636719,-4.987904071807861,77.78335571289062,Left
2453.8330078125,252880,1,1755.0,1759.0,1757.0,1721.0,1750.0,1571.0,1706.0,1804.0,127.16801452636719,-4.987904071807861,77.78335571289062,Left
2454.236083984375,252881,1,1762.0,1763.0,1695.0,1797.0,1757.0,1609.0,1703.0,1831.0,127.16801452636719,-4.987904071807861,77.78335571289062,Left
2456.236083984375,252881,1,1763.0,1765.0,1831.0,1789.0,1753.0,1853.0,1708.0,1877.0,127.19412231445312,-4.925339221954346,77.59122467041016,Left
2458.236083984375,252881,1,1754.0,1739.0,1881.0,1770.0,1751.0,2997.0,1712.0,1788.0,127.19412231445312,-4.925339221954346,77.59122467041016,Left
2460.236083984375,252881,1,1753.0,1765.0,1831.0,1763.0,1751.0,1556.0,1724.0,1651.0,127.19412231445312,-4.925339221954346,77.59122467041016,Left
2462.236083984375,252881,1,1759.0,1753.0,1733.0,1749.0,1748.0,1511.0,1723.0,1690.0,127.19412231445312,-4.925339221954346,77.59122467041016,Left
2469.703857421875,252882,1,1763.0,1750.0,1752.0,1756.0,1751.0,1543.0,1739.0,1723.0,127.19412231445312,-4.925339221954346,77.59122467041016,Left
2471.703857421875,252882,1,1759.0,1759.0,1781.0,1772.0,1755.0,1519.0,1749.0,1753.0,127.19412231445312,-4.925339221954346,77.59122467041016,Left
2473.703857421875,252882,1,1763.0,1763.0,1820.0,1765.0,1753.0,1527.0,1741.0,1763.0,127.19412231445312,-4.925339221954346,77.59122467041016,Left
2475.703857421875,252882,1,1765.0,1762.0,1737.0,1753.0,1758.0,1531.0,1739.0,1694.0,127.19412231445312,-4.925339221954346,77.59122467041016,Left
2477.703857421875,252882,1,1751.0,1759.0,1524.0,1753.0,1758.0,1576.0,1741.0,1764.0,127.19412231445312,-4.925339221954346,77.59122467041016,Left
2481.166015625,252883,1,1759.0,1763.0,1491.0,1759.0,1749.0,1619.0,1740.0,1805.0,127.19412231445312,-4.925339221954346,77.59122467041016,Left
2483.166015625,252883,1,1747.0,1762.0,1899.0,1767.0,1759.0,2027.0,1763.0,1948.0,127.19412231445312,-4.925339221954346,77.59122467041016,Left
2485.166015625,252883,1,1763.0,1759.0,2151.0,1789.0,1757.0,3065.0,1765.0,1851.0,127.19412231445312,-4.925339221954346,77.59122467041016,Left
2487.166015625,252883,1,1757.0,1763.0,1980.0,1781.0,1754.0,1593.0,1767.0,1657.0,127.19412231445312,-4.925339221954346,77.59122467041016,Left
2489.166015625,252883,1,1753.0,1765.0,1683.0,1751.0,1754.0,1482.0,1771.0,1628.0,127.19412231445312,-4.925339221954346,77.59122467041016,Left
2488.001953125,252884,1,1759.0,1751.0,1381.0,1705.0,1742.0,1505.0,1772.0,1646.0,127.19412231445312,-4.925339221954346,77.59122467041016,Left
2490.001953125,252884,1,1765.0,1763.0,2111.0,1717.0,1740.0,1517.0,1769.0,1739.0,127.19412231445312,-4.925339221954346,77.59122467041016,Left
2492.001953125,252884,1,1758.0,1752.0,1767.0,1781.0,1757.0,1524.0,1767.0,1779.0,127.19412231445312,-4.925339221954346,77.59122467041016,Left
2494.001953125,252884,1,1763.0,1762.0,1685.0,1784.0,1768.0,1517.0,1767.0,1707.0,127.19412231445312,-4.925339221954346,77.59122467041016,Left
2496.001953125,252884,1,1765.0,1763.0,1894.0,1780.0,1763.0,1572.0,1763.0,1805.0,127.19412231445312,-4.925339221954346,77.59122467041016,Left
2495.01806640625,252885,1,1759.0,1757.0,1742.0,1756.0,1751.0,1610.0,1755.0,1779.0,127.19412231445312,-4.925339221954346,77.59122467041016,Left
2497.01806640625,252885,1,1765.0,1765.0,1810.0,1778.0,1693.0,1879.0,1757.0,1898.0,127.19412231445312,-4.925339221954346,77.59122467041016,Left
2499.01806640625,252885,1,1741.0,1747.0,1692.0,1753.0,1736.0,2834.0,1759.0,1783.0,127.19412231445312,-4.925339221954346,77.59122467041016,Left
2501.01806640625,252885,1,1765.0,1766.0,1868.0,1767.0,1757.0,1553.0,1747.0,1674.0,127.19412231445312,-4.925339221954346,77.59122467041016,Left
2503.01806640625,252885,1,1757.0,1751.0,1580.0,1727.0,1752.0,1549.0,1755.0,1661.0,127.19412231445312,-4.925339221954346,77.59122467041016,Left
2510.701171875,252886,1,1763.0,1756.0,1707.0,1728.0,1750.0,1551.0,1747.0,1751.0,127.19412231445312,-4.925339221954346,77.59122467041016,Left
2512.701171875,252886,1,1757.0,1765.0,2157.0,1789.0,1752.0,1527.0,1749.0,1811.0,127.19412231445312,-4.925339221954346,77.59122467041016,Left
2514.701171875,252886,1,1764.0,1757.0,1973.0,1798.0,1751.0,1547.0,1755.0,1771.0,127.19412231445312,-4.925339221954346,77.59122467041016,Left
2516.701171875,252886,1,1762.0,1760.0,1971.0,1783.0,1755.0,1577.0,1763.0,1625.0,127.19412231445312,-4.925339221954346,77.59122467041016,Left
2518.701171875,252886,1,1759.0,1765.0,1421.0,1754.0,1747.0,1622.0,1778.0,1727.0,127.19412231445312,-4.925339221954346,77.59122467041016,Left
2515.43310546875,252887,1,1765.0,1742.0,1336.0,1749.0,1756.0,1648.0,1762.0,1775.0,127.19412231445312,-4.925339221954346,77.59122467041016,Left
2517.43310546875,252887,1,1765.0,1766.0,1629.0,1763.0,1769.0,1801.0,1765.0,1877.0,127.19412231445312,-4.925339221954346,77.59122467041016,Left
2519.43310546875,252887,1,1754.0,1761.0,2018.0,1750.0,1757.0,3099.0,1755.0,1833.0,127.19412231445312,-4.925339221954346,77.59122467041016,Left
2521.43310546875,252887,1,1763.0,1763.0,2022.0,1757.0,1743.0,1567.0,1751.0,1705.0,127.50187683105469,-4.651432514190674,77.50466918945312,Left
2523.43310546875,252887,1,1765.0,1753.0,1741.0,1757.0,1749.0,1487.0,1749.0,1684.0,127.50187683105469,-4.651432514190674,77.50466918945312,Left
2528.253173828125,252888,1,1763.0,1749.0,1623.0,1765.0,1735.0,1512.0,1739.0,1725.0,127.50187683105469,-4.651432514190674,77.50466918945312,Left
2530.253173828125,252888,1,1759.0,1763.0,1675.0,1773.0,1735.0,1541.0,1743.0,1699.0,127.50187683105469,-4.651432514190674,77.50466918945312,Left
2532.253173828125,252888,1,1767.0,1759.0,1979.0,1763.0,1819.0,1546.0,1737.0,1757.0,127.50187683105469,-4.651432514190674,77.50466918945312,Left
2534.253173828125,252888,1,1759.0,1766.0,1757.0,1775.0,1815.0,1555.0,1737.0,1733.0,127.50187683105469,-4.651432514190674,77.50466918945312,Left
2536.253173828125,252888,1,1758.0,1763.0,1913.0,1763.0,1779.0,1595.0,1747.0,1823.0,127.50187683105469,-4.651432514190674,77.50466918945312,Left
2537.46630859375,252889,1,1753.0,1761.0,1791.0,1723.0,1687.0,1639.0,1740.0,1775.0,127.50187683105469,-4.651432514190674,77.50466918945312,Left
2539.46630859375,252889,1,1751.0,1757.0,1575.0,1735.0,1679.0,2036.0,1741.0,1828.0,127.50187683105469,-4.651432514190674,77.50466918945312,Left
2541.46630859375,252889,1,1761.0,1767.0,1337.0,1755.0,1739.0,2963.0,1745.0,1751.0,127.50187683105469,-4.651432514190674,77.50466918945312,Left
2543.46630859375,252889,1,1754.0,1763.0,1927.0,1785.0,1707.0,1557.0,1745.0,1705.0,127.50187683105469,-4.651432514190674,77.50466918945312,Left
2545.46630859375,252889,1,1753.0,1763.0,1812.0,1775.0,1701.0,1518.0,1733.0,1716.0,127.50187683105469,-4.651432514190674,77.50466918945312,Left
2542.09716796875,252890,1,1765.0,1765.0,1837.0,1764.0,1819.0,1555.0,1736.0,1703.0,127.50187683105469,-4.651432514190674,77.50466918945312,Left
2544.09716796875,252890,1,1763.0,1771.0,1867.0,1735.0,1846.0,1553.0,1747.0,1683.0,127.50187683105469,-4.651432514190674,77.50466918945312,Left
2546.09716796875,252890,1,1765.0,1752.0,1750.0,1765.0,1929.0,1556.0,1741.0,1739.0,127.50187683105469,-4.651432514190674,77.50466918945312,Left
2548.09716796875,252890,1,1765.0,1765.0,1720.0,1767.0,1629.0,1531.0,1740.0,1679.0,127.50187683105469,-4.651432514190674,77.50466918945312,Left
2550.09716796875,252890,1,1766.0,1763.0,1755.0,1772.0,1671.0,1571.0,1743.0,1804.0,127.50187683105469,-4.651432514190674,77.50466918945312,Left
2558.406982421875,252891,1,1764.0,1763.0,1714.0,1769.0,1873.0,1608.0,1740.0,1863.0,127.50187683105469,-4.651432514190674,77.50466918945312,Left
2560.406982421875,252891,1,1753.0,1763.0,1724.0,1767.0,1817.0,1829.0,1743.0,1889.0,127.50187683105469,-4.651432514190674,77.50466918945312,Left
2562.406982421875,252891,1,1765.0,1765.0,1835.0,1788.0,1355.0,2857.0,1745.0,1799.0,127.50187683105469,-4.651432514190674,77.50466918945312,Left
2564.406982421875,252891,1,1765.0,1761.0,1823.0,1769.0,1638.0,1574.0,1737.0,1656.0,127.50187683105469,-4.651432514190674,77.50466918945312,Left
2566.406982421875,252891,1,1753.0,1765.0,1767.0,1748.0,1816.0,1574.0,1739.0,1683.0,127.50187683105469,-4.651432514190674,77.50466918945312,Left
2571.6181640625,252892,1,1758.0,1740.0,1767.0,1753.0,1929.0,1591.0,1739.0,1724.0,127.50187683105469,-4.651432514190674,77.50466918945312,Left
2573.6181640625,252892,1,1763.0,1767.0,1754.0,1787.0,1641.0,1581.0,1725.0,1721.0,127.50187683105469,-4.651432514190674,77.50466918945312,Left
2575.6181640625,252892,1,1751.0,1759.0,1705.0,1741.0,1593.0,1567.0,1723.0,1719.0,127.50187683105469,-4.651432514190674,77.50466918945312,Left
2577.6181640625,252892,1,1764.0,1763.0,1683.0,1754.0,1878.0,1555.0,1739.0,1677.0,127.50187683105469,-4.651432514190674,77.50466918945312,Left
2579.6181640625,252892,1,1754.0,1767.0,1689.0,1772.0,1816.0,1588.0,1734.0,1800.0,127.50187683105469,-4.651432514190674,77.50466918945312,Left
2581.422119140625,252893,1,1751.0,1757.0,1705.0,1749.0,1699.0,1634.0,1739.0,1847.0,127.50187683105469,-4.651432514190674,77.50466918945312,Left
2583.422119140625,252893,1,1763.0,1758.0,1785.0,1743.0,1608.0,2013.0,1741.0,1895.0,127.50187683105469,-4.651432514190674,77.50466918945312,Left
2585.422119140625,252893,1,1753.0,1766.0,1833.0,1759.0,1843.0,2952.0,1753.0,1813.0,127.50187683105469,-4.651432514190674,77.50466918945312,Left
2587.422119140625,252893,1,1763.0,1752.0,1817.0,1801.0,1989.0,1554.0,1762.0,1661.0,127.50187683105469,-4.651432514190674,77.50466918945312,Left
2589.422119140625,252893,1,1763.0,1759.0,1784.0,1763.0,1789.0,1544.0,1769.0,1663.0,127.50187683105469,-4.651432514190674,77.50466918945312,Left
2584.9931640625,252894,1,1763.0,1765.0,1761.0,1733.0,1516.0,1555.0,1767.0,1699.0,127.50187683105469,-4.651432514190674,77.50466918945312,Left
2586.9931640625,252894,1,1767.0,1754.0,1749.0,1761.0,1279.0,1558.0,1769.0,1741.0,127.94243621826172,-4.142490386962891,78.34601593017578,Left
2588.9931640625,252894,1,1755.0,1759.0,1719.0,1749.0,1581.0,1560.0,1767.0,1751.0,127.94243621826172,-4.142490386962891,78.34601593017578,Left
2590.9931640625,252894,1,1767.0,1763.0,1695.0,1721.0,1758.0,1546.0,1759.0,1700.0,127.94243621826172,-4.142490386962891,78.34601593017578,Left
2592.9931640625,252894,1,1763.0,1765.0,1715.0,1811.0,1613.0,1583.0,1759.0,1815.0,127.94243621826172,-4.142490386962891,78.34601593017578,Left
2600.240966796875,252895,1,1753.0,1757.0,1767.0,1800.0,1916.0,1612.0,1752.0,1847.0,127.94243621826172,-4.142490386962891,78.34601593017578,Left
2602.240966796875,252895,1,1745.0,1749.0,1805.0,1723.0,2057.0,1965.0,1756.0,1880.0,127.94243621826172,-4.142490386962891,78.34601593017578,Left
2604.240966796875,252895,1,1767.0,1766.0,1813.0,1719.0,2002.0,2949.0,1741.0,1735.0,127.94243621826172,-4.142490386962891,78.34601593017578,Left
2606.240966796875,252895,1,1755.0,1753.0,1800.0,1797.0,2428.0,1563.0,1753.0,1691.0,127.94243621826172,-4.142490386962891,78.34601593017578,Left
2608.240966796875,252895,1,1761.0,1767.0,1725.0,1766.0,1869.0,1557.0,1752.0,1719.0,127.94243621826172,-4.142490386962891,78.34601593017578,Left
2605.145263671875,252896,1,1762.0,1766.0,1790.0,1800.0,875.0,1573.0,1747.0,1783.0,127.94243621826172,-4.142490386962891,78.34601593017578,Left
2607.145263671875,252896,1,1758.0,1763.0,1774.0,1833.0,967.0,1557.0,1739.0,1735.0,127.94243621826172,-4.142490386962891,78.34601593017578,Left
2609.145263671875,252896,1,1751.0,1763.0,1695.0,1726.0,1816.0,1565.0,1741.0,1699.0,127.94243621826172,-4.142490386962891,78.34601593017578,Left
2611.145263671875,252896,1,1764.0,1763.0,1657.0,1615.0,2642.0,1529.0,1740.0,1618.0,127.94243621826172,-4.142490386962891,78.34601593017578,Left
2613.145263671875,252896,1,1753.0,1763.0,1709.0,1789.0,2282.0,1577.0,1755.0,1813.0,127.94243621826172,-4.142490386962891,78.34601593017578,Left
2613.9169921875,252897,1,1759.0,1766.0,1750.0,1765.0,1580.0,1615.0,1750.0,1849.0,127.94243621826172,-4.142490386962891,78.34601593017578,Left
2615.9169921875,252897,1,1753.0,1753.0,1791.0,1783.0,1575.0,1950.0,1740.0,1876.0,127.94243621826172,-4.142490386962891,78.34601593017578,Left
2617.9169921875,252897,1,1763.0,1759.0,1847.0,1815.0,1321.0,2991.0,1737.0,1751.0,127.94243621826172,-4.142490386962891,78.34601593017578,Left
2619.9169921875,252897,1,1764.0,1759.0,1819.0,1674.0,1914.0,1541.0,1743.0,1657.0,127.94243621826172,-4.142490386962891,78.34601593017578,Left
2621.9169921875,252897,1,1761.0,1759.0,1826.0,1717.0,1965.0,1549.0,1743.0,1689.0,127.94243621826172,-4.142490386962891,78.34601593017578,Left
2623.9580078125,252898,1,1766.0,1758.0,1705.0,1763.0,2044.0,1565.0,1727.0,1791.0,127.94243621826172,-4.142490386962891,78.34601593017578,Left
2625.9580078125,252898,1,1759.0,1765.0,1725.0,1789.0,1625.0,1562.0,1747.0,1749.0,127.94243621826172,-4.142490386962891,78.34601593017578,Left
2627.9580078125,252898,1,1755.0,1752.0,1717.0,1779.0,1532.0,1558.0,1752.0,1710.0,127.94243621826172,-4.142490386962891,78.34601593017578,Left
2629.9580078125,252898,1,1763.0,1765.0,1701.0,1789.0,1613.0,1531.0,1739.0,1663.0,127.94243621826172,-4.142490386962891,78.34601593017578,Left
2631.9580078125,252898,1,1763.0,1751.0,1734.0,1739.0,1699.0,1581.0,1733.0,1813.0,127.94243621826172,-4.142490386962891,78.34601593017578,Left
2634.675048828125,252899,1,1762.0,1751.0,1707.0,1675.0,2075.0,1619.0,1734.0,1815.0,127.94243621826172,-4.142490386962891,78.34601593017578,Left
2636.675048828125,252899,1,1764.0,1751.0,1752.0,1805.0,1509.0,2190.0,1736.0,1877.0,127.94243621826172,-4.142490386962891,78.34601593017578,Left
2638.675048828125,252899,1,1757.0,1763.0,1869.0,1798.0,1523.0,2775.0,1755.0,1827.0,127.94243621826172,-4.142490386962891,78.34601593017578,Left
2640.675048828125,252899,1,1766.0,1763.0,1815.0,1753.0,1365.0,1647.0,1765.0,1651.0,127.94243621826172,-4.142490386962891,78.34601593017578,Left
2642.675048828125,252899,1,1753.0,1765.0,1787.0,1727.0,2023.0,1647.0,1781.0,1705.0,127.94243621826172,-4.142490386962891,78.34601593017578,Left
2643.8447265625,252900,1,1763.0,1757.0,1800.0,1688.0,1671.0,1629.0,1784.0,1747.0,127.94243621826172,-4.142490386962891,78.34601593017578,Left
2645.8447265625,252900,1,1766.0,1765.0,1701.0,1734.0,1815.0,1599.0,1803.0,1699.0,127.94243621826172,-4.142490386962891,78.34601593017578,Left
2647.8447265625,252900,1,1765.0,1751.0,1748.0,1773.0,1546.0,1587.0,1799.0,1755.0,127.94243621826172,-4.142490386962891,78.34601593017578,Left
2649.8447265625,252900,1,1767.0,1759.0,1705.0,1717.0,1879.0,1487.0,1781.0,1673.0,131.31541442871094,-4.857601642608643,77.7929916381836,Left
2651.8447265625,252900,1,1765.0,1764.0,1639.0,1738.0,2365.0,1523.0,1786.0,1800.0,131.31541442871094,-4.857601642608643,77.7929916381836,Left
2657.156982421875,252901,1,1758.0,1763.0,1722.0,1701.0,1973.0,1581.0,1791.0,1831.0,131.31541442871094,-4.857601642608643,77.7929916381836,Left
2659.156982421875,252901,1,1758.0,1763.0,1832.0,1757.0,1448.0,1635.0,1804.0,1926.0,131.31541442871094,-4.857601642608643,77.7929916381836,Left
2661.156982421875,252901,1,1763.0,1752.0,1900.0,1773.0,1388.0,2363.0,1823.0,1786.0,131.31541442871094,-4.857601642608643,77.7929916381836,Left
2663.156982421875,252901,1,1765.0,1752.0,1837.0,1759.0,1553.0,1719.0,1826.0,1639.0,131.31541442871094,-4.857601642608643,77.7929916381836,Left
2665.156982421875,252901,1,1763.0,1761.0,1782.0,1807.0,1869.0,1714.0,1839.0,1694.0,131.31541442871094,-4.857601642608643,77.7929916381836,Left
2665.385009765625,252902,1,1759.0,1759.0,1756.0,1765.0,1337.0,1683.0,1887.0,1720.0,131.31541442871094,-4.857601642608643,77.7929916381836,Left
2667.385009765625,252902,1,1753.0,1769.0,1745.0,1821.0,1159.0,1635.0,1892.0,1774.0,131.31541442871094,-4.857601642608643,77.7929916381836,Left
2669.385009765625,252902,1,1763.0,1759.0,1814.0,1833.0,1715.0,1543.0,1912.0,1765.0,131.31541442871094,-4.857601642608643,77.7929916381836,Left
2671.385009765625,252902,1,1757.0,1757.0,1681.0,1784.0,2772.0,1579.0,1943.0,1642.0,131.31541442871094,-4.857601642608643,77.7929916381836,Left
2673.385009765625,252902,1,1761.0,1759.0,1727.0,1706.0,1723.0,1613.0,2011.0,1742.0,131.31541442871094,-4.857601642608643,77.7929916381836,Left
2706.35009765625,252903,1,1753.0,1750.0,1786.0,1843.0,1990.0,1645.0,2135.0,1836.0,131.31541442871094,-4.857601642608643,77.7929916381836,Left
2708.35009765625,252903,1,1762.0,1751.0,1803.0,1748.0,1727.0,1662.0,2253.0,1843.0,131.31541442871094,-4.857601642608643,77.7929916381836,Left
2710.35009765625,252903,1,1763.0,1763.0,1837.0,1739.0,1991.0,1685.0,2359.0,1767.0,131.31541442871094,-4.857601642608643,77.7929916381836,Left
2712.35009765625,252903,1,1763.0,1766.0,1836.0,1690.0,1517.0,1699.0,2473.0,1719.0,131.31541442871094,-4.857601642608643,77.7929916381836,Left
2714.35009765625,252903,1,1763.0,1761.0,1811.0,1801.0,1850.0,1699.0,2732.0,1695.0,131.31541442871094,-4.857601642608643,77.7929916381836,Left
2707.59814453125,252904,1,1764.0,1765.0,1756.0,1810.0,1081.0,1716.0,3531.0,1687.0,131.31541442871094,-4.857601642608643,77.7929916381836,Left
2709.59814453125,252904,1,1759.0,1753.0,1820.0,1784.0,957.0,1723.0,3822.0,1736.0,131.31541442871094,-4.857601642608643,77.7929916381836,Left
2711.59814453125,252904,1,1757.0,1759.0,1804.0,1738.0,2261.0,1708.0,3849.0,1719.0,131.31541442871094,-4.857601642608643,77.7929916381836,Left
2713.59814453125,252904,1,1765.0,1752.0,1787.0,1798.0,1789.0,1733.0,3723.0,1705.0,131.31541442871094,-4.857601642608643,77.7929916381836,Left
2715.59814453125,252904,1,1759.0,1764.0,1625.0,1747.0,2083.0,1725.0,3239.0,1847.0,131.31541442871094,-4.857601642608643,77.7929916381836,Left
2708.2470703125,252905,1,1753.0,1759.0,1589.0,1791.0,1846.0,1735.0,2893.0,1813.0,131.31541442871094,-4.857601642608643,77.7929916381836,Left
2710.2470703125,252905,1,1753.0,1765.0,1573.0,1790.0,2391.0,1909.0,2669.0,1875.0,131.31541442871094,-4.857601642608643,77.7929916381836,Left
2712.2470703125,252905,1,1765.0,1765.0,1887.0,1702.0,1610.0,3797.0,2488.0,1727.0,131.31541442871094,-4.857601642608643,77.7929916381836,Left
2714.2470703125,252905,1,1765.0,1757.0,1929.0,1671.0,1705.0,3800.0,2344.0,1655.0,131.31541442871094,-4.857601642608643,77.7929916381836,Left
2716.2470703125,252905,1,1765.0,1763.0,1833.0,1676.0,1447.0,3801.0,2219.0,1702.0,131.31541442871094,-4.857601642608643,77.7929916381836,Left
2711.845947265625,252906,1,1761.0,1758.0,1851.0,1726.0,1630.0,3801.0,2137.0,1735.0,131.31541442871094,-4.857601642608643,77.7929916381836,Left
2713.845947265625,252906,1,1759.0,1763.0,1799.0,1645.0,1511.0,3802.0,2066.0,1719.0,131.31541442871094,-4.857601642608643,77.7929916381836,Left
2715.845947265625,252906,1,1759.0,1763.0,1844.0,1702.0,1431.0,1333.0,1994.0,1749.0,131.31541442871094,-4.857601642608643,77.7929916381836,Left
2717.845947265625,252906,1,1763.0,1752.0,1752.0,1739.0,1925.0,0.0,1951.0,1709.0,131.31541442871094,-4.857601642608643,77.7929916381836,Left
2719.845947265625,252906,1,1763.0,1762.0,1767.0,1663.0,2065.0,0.0,1925.0,1848.0,131.31541442871094,-4.857601642608643,77.7929916381836,Left
2714.93017578125,252907,1,1765.0,1747.0,1919.0,1811.0,2073.0,0.0,1880.0,1875.0,131.31541442871094,-4.857601642608643,77.7929916381836,Left
2716.93017578125,252907,1,1759.0,1764.0,1899.0,1715.0,1925.0,0.0,1869.0,1848.0,146.6520538330078,-6.740475654602051,77.91529846191406,Left
2718.93017578125,252907,1,1755.0,1767.0,2261.0,1688.0,1549.0,0.0,1835.0,1767.0,146.6520538330078,-6.740475654602051,77.91529846191406,Left
2720.93017578125,252907,1,1763.0,1766.0,2397.0,1748.0,1123.0,0.0,1831.0,1621.0,146.6520538330078,-6.740475654602051,77.91529846191406,Left
2722.93017578125,252907,1,1763.0,1751.0,2123.0,1725.0,1596.0,0.0,1819.0,1706.0,146.6520538330078,-6.740475654602051,77.91529846191406,Left
2729.4140625,252908,1,1759.0,1759.0,2134.0,1830.0,2595.0,0.0,1804.0,1750.0,146.6520538330078,-6.740475654602051,77.91529846191406,Left
2731.4140625,252908,1,1756.0,1767.0,1896.0,1752.0,1723.0,0.0,1801.0,1753.0,146.6520538330078,-6.740475654602051,77.91529846191406,Left
2733.4140625,252908,1,1759.0,1765.0,1275.0,1763.0,1627.0,167.0,1799.0,1723.0,146.6520538330078,-6.740475654602051,77.91529846191406,Left
2735.4140625,252908,1,1753.0,1763.0,1397.0,1715.0,1511.0,459.0,1785.0,1636.0,146.6520538330078,-6.740475654602051,77.91529846191406,Left
2737.4140625,252908,1,1765.0,1765.0,1095.0,1693.0,1909.0,671.0,1787.0,1791.0,146.6520538330078,-6.740475654602051,77.91529846191406,Left
2744.697021484375,252909,1,1757.0,1762.0,1573.0,1743.0,1305.0,888.0,1772.0,1853.0,146.6520538330078,-6.740475654602051,77.91529846191406,Left
2746.697021484375,252909,1,1765.0,1753.0,1757.0,1831.0,1547.0,1032.0,1782.0,1931.0,146.6520538330078,-6.740475654602051,77.91529846191406,Left
2748.697021484375,252909,1,1767.0,1763.0,1657.0,1705.0,1699.0,1157.0,1769.0,1767.0,146.6520538330078,-6.740475654602051,77.91529846191406,Left
2750.697021484375,252909,1,1763.0,1766.0,1853.0,1915.0,1319.0,1264.0,1767.0,1659.0,146.6520538330078,-6.740475654602051,77.91529846191406,Left
2752.697021484375,252909,1,1766.0,1751.0,1722.0,1807.0,785.0,1355.0,1775.0,1679.0,146.6520538330078,-6.740475654602051,77.91529846191406,Left
2767.720947265625,252910,1,1759.0,1751.0,1695.0,1605.0,2987.0,1429.0,1773.0,1719.0,146.6520538330078,-6.740475654602051,77.91529846191406,Left
2769.720947265625,252910,1,1765.0,1747.0,1659.0,1755.0,2623.0,1483.0,1771.0,1723.0,146.6520538330078,-6.740475654602051,77.91529846191406,Left
2771.720947265625,252910,1,1754.0,1764.0,1614.0,1677.0,1615.0,1523.0,1765.0,1789.0,146.6520538330078,-6.740475654602051,77.91529846191406,Left
2773.720947265625,252910,1,1763.0,1754.0,1669.0,1913.0,1352.0,1571.0,1773.0,1769.0,146.6520538330078,-6.740475654602051,77.91529846191406,Left
2775.720947265625,252910,1,1761.0,1763.0,1471.0,1891.0,1273.0,1607.0,1769.0,1803.0,146.6520538330078,-6.740475654602051,77.91529846191406,Left
2768.37109375,252911,1,1765.0,1753.0,1577.0,1878.0,2292.0,1621.0,1769.0,1911.0,146.6520538330078,-6.740475654602051,77.91529846191406,Left
2770.37109375,252911,1,1764.0,1758.0,1717.0,1869.0,2223.0,1635.0,1779.0,1879.0,146.6520538330078,-6.740475654602051,77.91529846191406,Left
2772.37109375,252911,1,1761.0,1759.0,1717.0,1567.0,2023.0,1671.0,1765.0,1695.0,146.6520538330078,-6.740475654602051,77.91529846191406,Left
2774.37109375,252911,1,1759.0,1763.0,1865.0,1813.0,1015.0,1685.0,1767.0,1605.0,146.6520538330078,-6.740475654602051,77.91529846191406,Left
2776.37109375,252911,1,1764.0,1765.0,1757.0,1725.0,1751.0,1694.0,1765.0,1683.0,146.6520538330078,-6.740475654602051,77.91529846191406,Left
2769.822998046875,252912,1,1752.0,1751.0,1818.0,1785.0,2397.0,1707.0,1757.0,1764.0,146.6520538330078,-6.740475654602051,77.91529846191406,Left
2771.822998046875,252912,1,1765.0,1763.0,1773.0,1851.0,1763.0,1704.0,1759.0,1688.0,146.6520538330078,-6.740475654602051,77.91529846191406,Left
2773.822998046875,252912,1,1763.0,1763.0,1685.0,1719.0,2183.0,1721.0,1765.0,1743.0,146.6520538330078,-6.740475654602051,77.91529846191406,Left
2775.822998046875,252912,1,1763.0,1763.0,1683.0,1876.0,619.0,1725.0,1769.0,1707.0,146.6520538330078,-6.740475654602051,77.91529846191406,Left
2777.822998046875,252912,1,1763.0,1759.0,1481.0,1836.0,1451.0,1725.0,1757.0,1839.0,146.6520538330078,-6.740475654602051,77.91529846191406,Left
2788.951171875,252913,1,1763.0,1751.0,1513.0,1855.0,2475.0,1739.0,1769.0,1803.0,146.6520538330078,-6.740475654602051,77.91529846191406,Left
2790.951171875,252913,1,1765.0,1759.0,1599.0,1787.0,2478.0,1739.0,1767.0,1851.0,146.6520538330078,-6.740475654602051,77.91529846191406,Left
2792.951171875,252913,1,1763.0,1763.0,1709.0,1737.0,1495.0,1743.0,1763.0,1748.0,146.6520538330078,-6.740475654602051,77.91529846191406,Left
2794.951171875,252913,1,1753.0,1735.0,1692.0,1745.0,1532.0,1739.0,1769.0,1609.0,158.88861083984375,-7.569117546081543,82.65215301513672,Left
2796.951171875,252913,1,1765.0,1764.0,1679.0,1880.0,1509.0,1747.0,1769.0,1639.0,158.88861083984375,-7.569117546081543,82.65215301513672,Left
2790.197998046875,252914,1,1764.0,1725.0,1737.0,1767.0,1293.0,1735.0,1763.0,1779.0,158.88861083984375,-7.569117546081543,82.65215301513672,Left
2792.197998046875,252914,1,1763.0,1762.0,1783.0,1768.0,1935.0,1743.0,1767.0,1685.0,158.88861083984375,-7.569117546081543,82.65215301513672,Left
2794.197998046875,252914,1,1766.0,1765.0,1811.0,1814.0,2549.0,1737.0,1767.0,1784.0,158.88861083984375,-7.569117546081543,82.65215301513672,Left
2796.197998046875,252914,1,1763.0,1757.0,1704.0,1804.0,1501.0,1747.0,1767.0,1723.0,158.88861083984375,-7.569117546081543,82.65215301513672,Left
2798.197998046875,252914,1,1767.0,1757.0,1583.0,1849.0,1493.0,1752.0,1765.0,1846.0,158.88861083984375,-7.569117546081543,82.65215301513672,Left
2799.421142578125,252915,1,1765.0,1767.0,1716.0,1780.0,1223.0,1748.0,1767.0,1831.0,158.88861083984375,-7.569117546081543,82.65215301513672,Left
2801.421142578125,252915,1,1755.0,1763.0,1939.0,1824.0,745.0,1751.0,1766.0,1831.0,158.88861083984375,-7.569117546081543,82.65215301513672,Left
2803.421142578125,252915,1,1765.0,1763.0,2005.0,1811.0,2423.0,1749.0,1764.0,1773.0,158.88861083984375,-7.569117546081543,82.65215301513672,Left
2805.421142578125,252915,1,1753.0,1762.0,1851.0,1559.0,2988.0,1747.0,1764.0,1618.0,158.88861083984375,-7.569117546081543,82.65215301513672,Left
2807.421142578125,252915,1,1766.0,1763.0,1864.0,1832.0,2235.0,1749.0,1753.0,1695.0,158.88861083984375,-7.569117546081543,82.65215301513672,Left
2803.253173828125,252916,1,1753.0,1750.0,1639.0,1751.0,1625.0,1740.0,1767.0,1647.0,158.88861083984375,-7.569117546081543,82.65215301513672,Left
2805.253173828125,252916,1,1765.0,1764.0,1721.0,1783.0,1514.0,1741.0,1755.0,1765.0,158.88861083984375,-7.569117546081543,82.65215301513672,Left
2807.253173828125,252916,1,1764.0,1765.0,1975.0,1695.0,1527.0,1741.0,1755.0,1835.0,158.88861083984375,-7.569117546081543,82.65215301513672,Left
2809.253173828125,252916,1,1752.0,1752.0,1823.0,1690.0,1690.0,1753.0,1766.0,1769.0,158.88861083984375,-7.569117546081543,82.65215301513672,Left
2811.253173828125,252916,1,1758.0,1763.0,1813.0,1753.0,1635.0,1751.0,1765.0,1885.0,158.88861083984375,-7.569117546081543,82.65215301513672,Left
2817.32421875,252917,1,1759.0,1743.0,1762.0,1834.0,1672.0,1739.0,1757.0,1792.0,158.88861083984375,-7.569117546081543,82.65215301513672,Left
2819.32421875,252917,1,1763.0,1757.0,1461.0,1779.0,1701.0,1752.0,1767.0,1837.0,158.88861083984375,-7.569117546081543,82.65215301513672,Left
2821.32421875,252917,1,1767.0,1753.0,1772.0,1686.0,1683.0,1755.0,1767.0,1757.0,158.88861083984375,-7.569117546081543,82.65215301513672,Left
2823.32421875,252917,1,1763.0,1765.0,2055.0,1694.0,1677.0,1753.0,1755.0,1653.0,158.88861083984375,-7.569117546081543,82.65215301513672,Left
2825.32421875,252917,1,1763.0,1765.0,1855.0,1772.0,2301.0,1751.0,1769.0,1695.0,158.88861083984375,-7.569117546081543,82.65215301513672,Left
2833.89404296875,252918,1,1766.0,1757.0,1595.0,1705.0,1260.0,1745.0,1763.0,1689.0,158.88861083984375,-7.569117546081543,82.65215301513672,Left
2835.89404296875,252918,1,1765.0,1757.0,1845.0,1827.0,1429.0,1752.0,1759.0,1749.0,158.88861083984375,-7.569117546081543,82.65215301513672,Left
2837.89404296875,252918,1,1764.0,1763.0,1829.0,1805.0,1299.0,1753.0,1764.0,1764.0,158.88861083984375,-7.569117546081543,82.65215301513672,Left
2839.89404296875,252918,1,1763.0,1758.0,1733.0,1653.0,2406.0,1743.0,1765.0,1721.0,158.88861083984375,-7.569117546081543,82.65215301513672,Left
2841.89404296875,252918,1,1765.0,1765.0,1655.0,1663.0,1189.0,1754.0,1755.0,1847.0,158.88861083984375,-7.569117546081543,82.65215301513672,Left
2836.163330078125,252919,1,1755.0,1741.0,1591.0,1687.0,2023.0,1753.0,1748.0,1822.0,158.88861083984375,-7.569117546081543,82.65215301513672,Left
2838.163330078125,252919,1,1765.0,1727.0,1662.0,1775.0,2383.0,1754.0,1767.0,1860.0,158.88861083984375,-7.569117546081543,82.65215301513672,Left
2840.163330078125,252919,1,1753.0,1753.0,1902.0,1765.0,1661.0,1753.0,1755.0,1752.0,158.88861083984375,-7.569117546081543,82.65215301513672,Left
2842.163330078125,252919,1,1765.0,1764.0,1868.0,1811.0,1492.0,1757.0,1769.0,1679.0,158.88861083984375,-7.569117546081543,82.65215301513672,Left
2844.163330078125,252919,1,1763.0,1751.0,1930.0,1848.0,1317.0,1755.0,1769.0,1722.0,158.88861083984375,-7.569117546081543,82.65215301513672,Left
2844.670166015625,252920,1,1758.0,1749.0,1813.0,1721.0,1715.0,1753.0,1763.0,1695.0,158.88861083984375,-7.569117546081543,82.65215301513672,Left
2846.670166015625,252920,1,1767.0,1752.0,1785.0,1845.0,2207.0,1752.0,1763.0,1756.0,153.75721740722656,-9.620914459228516,86.94673919677734,Left
2848.670166015625,252920,1,1754.0,1754.0,1509.0,1679.0,1849.0,1752.0,1765.0,1686.0,153.75721740722656,-9.620914459228516,86.94673919677734,Left
2850.670166015625,252920,1,1764.0,1764.0,1671.0,1622.0,1813.0,1751.0,1765.0,1725.0,153.75721740722656,-9.620914459228516,86.94673919677734,Left
2852.670166015625,252920,1,1750.0,1767.0,1767.0,1657.0,1379.0,1756.0,1767.0,1862.0,153.75721740722656,-9.620914459228516,86.94673919677734,Left
2861.93115234375,252921,1,1754.0,1764.0,1679.0,1765.0,2324.0,1745.0,1763.0,1833.0,153.75721740722656,-9.620914459228516,86.94673919677734,Left
2863.93115234375,252921,1,1751.0,1762.0,1757.0,1594.0,1577.0,1743.0,1765.0,1845.0,153.75721740722656,-9.620914459228516,86.94673919677734,Left
2865.93115234375,252921,1,1755.0,1763.0,1899.0,1739.0,1627.0,1753.0,1767.0,1739.0,153.75721740722656,-9.620914459228516,86.94673919677734,Left
2867.93115234375,252921,1,1751.0,1751.0,1881.0,1843.0,1624.0,1753.0,1765.0,1661.0,153.75721740722656,-9.620914459228516,86.94673919677734,Left
2869.93115234375,252921,1,1764.0,1753.0,1837.0,1751.0,1212.0,1755.0,1763.0,1703.0,153.75721740722656,-9.620914459228516,86.94673919677734,Left
2865.3330078125,252922,1,1754.0,1763.0,1767.0,1800.0,1775.0,1753.0,1763.0,1717.0,153.75721740722656,-9.620914459228516,86.94673919677734,Left
2867.3330078125,252922,1,1765.0,1758.0,1749.0,1748.0,2267.0,1755.0,1767.0,1767.0,153.75721740722656,-9.620914459228516,86.94673919677734,Left
2869.3330078125,252922,1,1757.0,1764.0,1737.0,1659.0,1700.0,1751.0,1753.0,1776.0,153.75721740722656,-9.620914459228516,86.94673919677734,Left
2871.3330078125,252922,1,1765.0,1761.0,1797.0,1655.0,1556.0,1743.0,1767.0,1752.0,153.75721740722656,-9.620914459228516,86.94673919677734,Left
2873.3330078125,252922,1,1758.0,1763.0,1783.0,1719.0,1608.0,1755.0,1764.0,1839.0,153.75721740722656,-9.620914459228516,86.94673919677734,Left
2888.1201171875,252923,1,1759.0,1764.0,1358.0,1755.0,1669.0,1756.0,1765.0,1769.0,153.75721740722656,-9.620914459228516,86.94673919677734,Left
2890.1201171875,252923,1,1765.0,1752.0,1677.0,1757.0,1078.0,1752.0,1755.0,1815.0,153.75721740722656,-9.620914459228516,86.94673919677734,Left
2892.1201171875,252923,1,1755.0,1769.0,1919.0,1823.0,1799.0,1751.0,1763.0,1741.0,153.75721740722656,-9.620914459228516,86.94673919677734,Left
2894.1201171875,252923,1,1755.0,1763.0,1557.0,1769.0,2991.0,1755.0,1765.0,1639.0,153.75721740722656,-9.620914459228516,86.94673919677734,Left
2896.1201171875,252923,1,1764.0,1764.0,1789.0,1743.0,2043.0,1757.0,1763.0,1703.0,153.75721740722656,-9.620914459228516,86.94673919677734,Left
2888.925048828125,252924,1,1763.0,1763.0,1878.0,1805.0,1311.0,1745.0,1767.0,1742.0,153.75721740722656,-9.620914459228516,86.94673919677734,Left
2890.925048828125,252924,1,1763.0,1752.0,1861.0,1847.0,1302.0,1756.0,1767.0,1757.0,153.75721740722656,-9.620914459228516,86.94673919677734,Left
2892.925048828125,252924,1,1759.0,1763.0,1801.0,1801.0,2513.0,1755.0,1766.0,1746.0,153.75721740722656,-9.620914459228516,86.94673919677734,Left
2894.925048828125,252924,1,1753.0,1766.0,1690.0,1693.0,2397.0,1743.0,1763.0,1747.0,153.75721740722656,-9.620914459228516,86.94673919677734,Left
2896.925048828125,252924,1,1763.0,1753.0,1656.0,1659.0,1727.0,1745.0,1767.0,1837.0,153.75721740722656,-9.620914459228516,86.94673919677734,Left
2906.696044921875,252925,1,1763.0,1767.0,1787.0,1785.0,1949.0,1754.0,1766.0,1855.0,153.75721740722656,-9.620914459228516,86.94673919677734,Left
2908.696044921875,252925,1,1752.0,1759.0,1853.0,1849.0,1371.0,1755.0,1765.0,1821.0,153.75721740722656,-9.620914459228516,86.94673919677734,Left
2910.696044921875,252925,1,1763.0,1764.0,1885.0,1802.0,1865.0,1745.0,1763.0,1747.0,153.75721740722656,-9.620914459228516,86.94673919677734,Left
2912.696044921875,252925,1,1763.0,1753.0,1807.0,1785.0,1787.0,1727.0,1764.0,1623.0,153.75721740722656,-9.620914459228516,86.94673919677734,Left
2914.696044921875,252925,1,1764.0,1765.0,1703.0,1736.0,2009.0,1752.0,1767.0,1710.0,153.75721740722656,-9.620914459228516,86.94673919677734,Left
2907.38427734375,252926,1,1763.0,1752.0,1641.0,1753.0,2134.0,1755.0,1766.0,1719.0,153.75721740722656,-9.620914459228516,86.94673919677734,Left
2909.38427734375,252926,1,1763.0,1753.0,1737.0,1751.0,1386.0,1747.0,1756.0,1723.0,153.75721740722656,-9.620914459228516,86.94673919677734,Left
2911.38427734375,252926,1,1764.0,1753.0,1702.0,1690.0,1683.0,1757.0,1768.0,1735.0,153.75721740722656,-9.620914459228516,86.94673919677734,Left
2913.38427734375,252926,1,1758.0,1759.0,1721.0,1778.0,1612.0,1754.0,1763.0,1727.0,151.8048553466797,-10.289477348327637,90.11822509765625,Left
2915.38427734375,252926,1,1757.0,1765.0,1709.0,1871.0,1379.0,1751.0,1765.0,1854.0,151.8048553466797,-10.289477348327637,90.11822509765625,Left
2912.66796875,252927,1,1755.0,1757.0,1715.0,1575.0,2089.0,1751.0,1767.0,1848.0,151.8048553466797,-10.289477348327637,90.11822509765625,Left
2914.66796875,252927,1,1763.0,1763.0,1844.0,1833.0,1856.0,1816.0,1767.0,1855.0,151.8048553466797,-10.289477348327637,90.11822509765625,Left
2916.66796875,252927,1,1765.0,1763.0,1883.0,1851.0,1303.0,1851.0,1762.0,1769.0,151.8048553466797,-10.289477348327637,90.11822509765625,Left
2918.66796875,252927,1,1763.0,1756.0,1875.0,1883.0,1887.0,1809.0,1765.0,1657.0,151.8048553466797,-10.289477348327637,90.11822509765625,Left
2920.66796875,252927,1,1765.0,1764.0,1877.0,1721.0,2427.0,1771.0,1767.0,1695.0,151.8048553466797,-10.289477348327637,90.11822509765625,Left
2929.8779296875,252928,1,1762.0,1768.0,1443.0,1709.0,1901.0,1751.0,1754.0,1709.0,151.8048553466797,-10.289477348327637,90.11822509765625,Left
2931.8779296875,252928,1,1763.0,1765.0,1735.0,1695.0,1339.0,1725.0,1756.0,1736.0,151.8048553466797,-10.289477348327637,90.11822509765625,Left
2933.8779296875,252928,1,1763.0,1765.0,1848.0,1667.0,1399.0,1707.0,1767.0,1747.0,151.8048553466797,-10.289477348327637,90.11822509765625,Left
2935.8779296875,252928,1,1766.0,1763.0,1661.0,1741.0,2072.0,1707.0,1765.0,1701.0,151.8048553466797,-10.289477348327637,90.11822509765625,Left
2937.8779296875,252928,1,1763.0,1763.0,1669.0,1806.0,1577.0,1721.0,1755.0,1823.0,151.8048553466797,-10.289477348327637,90.11822509765625,Left
2939.689208984375,252929,1,1757.0,1753.0,1722.0,1792.0,2075.0,1735.0,1763.0,1851.0,151.8048553466797,-10.289477348327637,90.11822509765625,Left
2941.689208984375,252929,1,1739.0,1773.0,1821.0,1801.0,1456.0,1862.0,1752.0,1855.0,151.8048553466797,-10.289477348327637,90.11822509765625,Left
2943.689208984375,252929,1,1765.0,1763.0,1839.0,1717.0,1599.0,2231.0,1758.0,1715.0,151.8048553466797,-10.289477348327637,90.11822509765625,Left
2945.689208984375,252929,1,1765.0,1763.0,1844.0,1763.0,1529.0,1764.0,1755.0,1638.0,151.8048553466797,-10.289477348327637,90.11822509765625,Left
2947.689208984375,252929,1,1763.0,1765.0,1811.0,1817.0,1883.0,1768.0,1763.0,1741.0,151.8048553466797,-10.289477348327637,90.11822509765625,Left
2946.567138671875,252930,1,1766.0,1741.0,1743.0,1700.0,1779.0,1751.0,1764.0,1727.0,151.8048553466797,-10.289477348327637,90.11822509765625,Left
2948.567138671875,252930,1,1765.0,1757.0,1719.0,1833.0,1941.0,1725.0,1756.0,1747.0,151.8048553466797,-10.289477348327637,90.11822509765625,Left
2950.567138671875,252930,1,1767.0,1764.0,1717.0,1717.0,1828.0,1689.0,1766.0,1757.0,151.8048553466797,-10.289477348327637,90.11822509765625,Left
2952.567138671875,252930,1,1761.0,1752.0,1674.0,1751.0,1549.0,1641.0,1766.0,1721.0,151.8048553466797,-10.289477348327637,90.11822509765625,Left
2954.567138671875,252930,1,1759.0,1759.0,1673.0,1739.0,1644.0,1669.0,1767.0,1832.0,151.8048553466797,-10.289477348327637,90.11822509765625,Left
2952.68310546875,252931,1,1765.0,1753.0,1738.0,1734.0,1743.0,1687.0,1767.0,1811.0,151.8048553466797,-10.289477348327637,90.11822509765625,Left
2954.68310546875,252931,1,1757.0,1757.0,1784.0,1733.0,1103.0,1689.0,1765.0,1829.0,151.8048553466797,-10.289477348327637,90.11822509765625,Left
2956.68310546875,252931,1,1765.0,1763.0,1879.0,1787.0,2292.0,2027.0,1767.0,1749.0,151.8048553466797,-10.289477348327637,90.11822509765625,Left
2958.68310546875,252931,1,1763.0,1763.0,1865.0,1784.0,1659.0,1767.0,1767.0,1651.0,151.8048553466797,-10.289477348327637,90.11822509765625,Left
2960.68310546875,252931,1,1767.0,1765.0,1835.0,1769.0,1933.0,1773.0,1767.0,1707.0,151.8048553466797,-10.289477348327637,90.11822509765625,Left
2968.1240234375,252932,1,1752.0,1765.0,1789.0,1719.0,1604.0,1767.0,1756.0,1751.0,151.8048553466797,-10.289477348327637,90.11822509765625,Left
2970.1240234375,252932,1,1762.0,1761.0,1787.0,1789.0,1418.0,1735.0,1755.0,1747.0,151.8048553466797,-10.289477348327637,90.11822509765625,Left
2972.1240234375,252932,1,1753.0,1753.0,1685.0,1701.0,1820.0,1699.0,1769.0,1735.0,151.8048553466797,-10.289477348327637,90.11822509765625,Left
2974.1240234375,252932,1,1762.0,1761.0,1607.0,1715.0,2135.0,1669.0,1765.0,1689.0,151.8048553466797,-10.289477348327637,90.11822509765625,Left
2976.1240234375,252932,1,1765.0,1759.0,1558.0,1787.0,1886.0,1675.0,1764.0,1783.0,151.8048553466797,-10.289477348327637,90.11822509765625,Left
2973.29296875,252933,1,1753.0,1763.0,1721.0,1758.0,1482.0,1691.0,1763.0,1849.0,151.8048553466797,-10.289477348327637,90.11822509765625,Left
2975.29296875,252933,1,1763.0,1756.0,1761.0,1749.0,1963.0,1707.0,1763.0,1838.0,150.3936004638672,-10.751533508300781,92.07349395751953,Left
2977.29296875,252933,1,1758.0,1763.0,1959.0,1776.0,1683.0,2229.0,1765.0,1785.0,150.3936004638672,-10.751533508300781,92.07349395751953,Left
2979.29296875,252933,1,1763.0,1763.0,1855.0,1850.0,2142.0,1720.0,1757.0,1656.0,150.3936004638672,-10.751533508300781,92.07349395751953,Left
2981.29296875,252933,1,1765.0,1763.0,1805.0,1723.0,1359.0,1753.0,1763.0,1709.0,150.3936004638672,-10.751533508300781,92.07349395751953,Left
2999.065185546875,252934,1,1758.0,1765.0,1785.0,1695.0,1607.0,1749.0,1765.0,1705.0,150.3936004638672,-10.751533508300781,92.07349395751953,Left
3001.065185546875,252934,1,1767.0,1749.0,1524.0,1763.0,2201.0,1741.0,1765.0,1717.0,150.3936004638672,-10.751533508300781,92.07349395751953,Left
3003.065185546875,252934,1,1764.0,1763.0,1827.0,1776.0,1188.0,1709.0,1753.0,1783.0,150.3936004638672,-10.751533508300781,92.07349395751953,Left
3005.065185546875,252934,1,1763.0,1763.0,1749.0,1725.0,1804.0,1634.0,1763.0,1735.0,150.3936004638672,-10.751533508300781,92.07349395751953,Left
3007.065185546875,252934,1,1753.0,1749.0,1652.0,1706.0,2213.0,1655.0,1765.0,1839.0,150.3936004638672,-10.751533508300781,92.07349395751953,Left
3014.852294921875,252935,1,1763.0,1755.0,1725.0,1815.0,1559.0,1675.0,1753.0,1837.0,150.3936004638672,-10.751533508300781,92.07349395751953,Left
3016.852294921875,252935,1,1754.0,1757.0,1772.0,1865.0,2009.0,1695.0,1767.0,1835.0,150.3936004638672,-10.751533508300781,92.07349395751953,Left
3018.852294921875,252935,1,1763.0,1765.0,1863.0,1741.0,1501.0,2043.0,1759.0,1739.0,150.3936004638672,-10.751533508300781,92.07349395751953,Left
3020.852294921875,252935,1,1764.0,1765.0,1882.0,1753.0,1661.0,1766.0,1754.0,1677.0,150.3936004638672,-10.751533508300781,92.07349395751953,Left
3022.852294921875,252935,1,1759.0,1765.0,1879.0,1771.0,2009.0,1783.0,1763.0,1740.0,150.3936004638672,-10.751533508300781,92.07349395751953,Left
3015.927001953125,252936,1,1761.0,1736.0,1748.0,1781.0,1604.0,1780.0,1767.0,1705.0,150.3936004638672,-10.751533508300781,92.07349395751953,Left
3017.927001953125,252936,1,1754.0,1753.0,1566.0,1694.0,1431.0,1755.0,1767.0,1725.0,150.3936004638672,-10.751533508300781,92.07349395751953,Left
3019.927001953125,252936,1,1767.0,1762.0,1721.0,1756.0,2093.0,1711.0,1764.0,1737.0,150.3936004638672,-10.751533508300781,92.07349395751953,Left
3021.927001953125,252936,1,1763.0,1763.0,1721.0,1812.0,1464.0,1663.0,1767.0,1711.0,150.3936004638672,-10.751533508300781,92.07349395751953,Left
3023.927001953125,252936,1,1765.0,1763.0,1637.0,1659.0,1792.0,1675.0,1767.0,1831.0,150.3936004638672,-10.751533508300781,92.07349395751953,Left
3016.43505859375,252937,1,1755.0,1764.0,1711.0,1853.0,2713.0,1693.0,1763.0,1851.0,150.3936004638672,-10.751533508300781,92.07349395751953,Left
3018.43505859375,252937,1,1767.0,1763.0,1780.0,1571.0,1751.0,1699.0,1768.0,1828.0,150.3936004638672,-10.751533508300781,92.07349395751953,Left
3020.43505859375,252937,1,1753.0,1763.0,1881.0,1786.0,1523.0,2157.0,1759.0,1787.0,150.3936004638672,-10.751533508300781,92.07349395751953,Left
3022.43505859375,252937,1,1767.0,1751.0,1863.0,1752.0,1719.0,1755.0,1755.0,1678.0,150.3936004638672,-10.751533508300781,92.07349395751953,Left
3024.43505859375,252937,1,1750.0,1763.0,1838.0,1820.0,1579.0,1772.0,1755.0,1699.0,150.3936004638672,-10.751533508300781,92.07349395751953,Left
3024.47216796875,252938,1,1763.0,1764.0,1769.0,1775.0,1711.0,1767.0,1753.0,1716.0,150.3936004638672,-10.751533508300781,92.07349395751953,Left
3026.47216796875,252938,1,1759.0,1764.0,1705.0,1755.0,1854.0,1739.0,1753.0,1707.0,150.3936004638672,-10.751533508300781,92.07349395751953,Left
3028.47216796875,252938,1,1754.0,1765.0,1723.0,1801.0,1580.0,1709.0,1765.0,1753.0,150.3936004638672,-10.751533508300781,92.07349395751953,Left
3030.47216796875,252938,1,1767.0,1751.0,1702.0,1770.0,1752.0,1636.0,1766.0,1709.0,150.3936004638672,-10.751533508300781,92.07349395751953,Left
3032.47216796875,252938,1,1765.0,1765.0,1669.0,1686.0,1771.0,1663.0,1763.0,1869.0,150.3936004638672,-10.751533508300781,92.07349395751953,Left
3037.283203125,252939,1,1766.0,1763.0,1742.0,1799.0,1190.0,1685.0,1743.0,1833.0,150.3936004638672,-10.751533508300781,92.07349395751953,Left
3039.283203125,252939,1,1763.0,1763.0,1782.0,1735.0,1753.0,1690.0,1764.0,1814.0,150.3936004638672,-10.751533508300781,92.07349395751953,Left
3041.283203125,252939,1,1766.0,1764.0,1827.0,1766.0,2665.0,2078.0,1757.0,1714.0,149.74562072753906,-10.148050308227539,92.7448501586914,Left
3043.283203125,252939,1,1759.0,1752.0,1807.0,1751.0,1897.0,1757.0,1767.0,1639.0,149.74562072753906,-10.148050308227539,92.7448501586914,Left
3045.283203125,252939,1,1765.0,1764.0,1770.0,1791.0,1716.0,1771.0,1757.0,1711.0,149.74562072753906,-10.148050308227539,92.7448501586914,Left
3051.93212890625,252940,1,1753.0,1764.0,1773.0,1775.0,1655.0,1771.0,1764.0,1738.0,149.74562072753906,-10.148050308227539,92.7448501586914,Left
3053.93212890625,252940,1,1767.0,1759.0,1783.0,1801.0,1765.0,1752.0,1766.0,1769.0,149.74562072753906,-10.148050308227539,92.7448501586914,Left
3055.93212890625,252940,1,1763.0,1752.0,1771.0,1816.0,2055.0,1711.0,1763.0,1770.0,149.74562072753906,-10.148050308227539,92.7448501586914,Left
3057.93212890625,252940,1,1763.0,1752.0,1789.0,1683.0,1573.0,1671.0,1755.0,1745.0,149.74562072753906,-10.148050308227539,92.7448501586914,Left
3059.93212890625,252940,1,1765.0,1765.0,1677.0,1767.0,1517.0,1673.0,1765.0,1863.0,149.74562072753906,-10.148050308227539,92.7448501586914,Left
3054.189208984375,252941,1,1763.0,1723.0,1516.0,1672.0,1611.0,1700.0,1763.0,1791.0,149.74562072753906,-10.148050308227539,92.7448501586914,Left
3056.189208984375,252941,1,1759.0,1763.0,1705.0,1765.0,1496.0,1715.0,1763.0,1831.0,149.74562072753906,-10.148050308227539,92.7448501586914,Left
3058.189208984375,252941,1,1767.0,1765.0,1997.0,1815.0,2007.0,1959.0,1767.0,1762.0,149.74562072753906,-10.148050308227539,92.7448501586914,Left
3060.189208984375,252941,1,1759.0,1763.0,1909.0,1809.0,1931.0,1773.0,1769.0,1687.0,149.74562072753906,-10.148050308227539,92.7448501586914,Left
3062.189208984375,252941,1,1765.0,1762.0,1723.0,1783.0,1595.0,1789.0,1763.0,1647.0,149.74562072753906,-10.148050308227539,92.7448501586914,Left
3070.511962890625,252942,1,1762.0,1765.0,1583.0,1727.0,2175.0,1772.0,1767.0,1711.0,149.74562072753906,-10.148050308227539,92.7448501586914,Left
3072.511962890625,252942,1,1752.0,1759.0,1823.0,1698.0,1606.0,1752.0,1765.0,1734.0,149.74562072753906,-10.148050308227539,92.7448501586914,Left
3074.511962890625,252942,1,1754.0,1759.0,1770.0,1715.0,1783.0,1723.0,1755.0,1739.0,149.74562072753906,-10.148050308227539,92.7448501586914,Left
3076.511962890625,252942,1,1766.0,1763.0,1720.0,1784.0,1791.0,1678.0,1755.0,1739.0,149.74562072753906,-10.148050308227539,92.7448501586914,Left
3078.511962890625,252942,1,1758.0,1765.0,1701.0,1769.0,1576.0,1695.0,1765.0,1852.0,149.74562072753906,-10.148050308227539,92.7448501586914,Left
3210.5810546875,252943,1,1759.0,1765.0,1806.0,1779.0,2027.0,1709.0,1767.0,1850.0,149.74562072753906,-10.148050308227539,92.7448501586914,Left
3212.5810546875,252943,1,1765.0,1758.0,1531.0,1776.0,1374.0,1716.0,1769.0,1819.0,149.74562072753906,-10.148050308227539,92.7448501586914,Left
3214.5810546875,252943,1,1765.0,1759.0,1879.0,1704.0,1381.0,1929.0,1767.0,1751.0,149.74562072753906,-10.148050308227539,92.7448501586914,Left
3216.5810546875,252943,1,1765.0,1765.0,1886.0,1779.0,1854.0,1769.0,1753.0,1673.0,149.74562072753906,-10.148050308227539,92.7448501586914,Left
3218.5810546875,252943,1,1765.0,1751.0,1829.0,1945.0,2054.0,1785.0,1763.0,1685.0,149.74562072753906,-10.148050308227539,92.7448501586914,Left
3211.3681640625,252944,1,1763.0,1769.0,1756.0,1692.0,1955.0,1785.0,1763.0,1724.0,149.74562072753906,-10.148050308227539,92.7448501586914,Left
3213.3681640625,252944,1,1753.0,1753.0,1740.0,1735.0,2019.0,1765.0,1765.0,1753.0,149.74562072753906,-10.148050308227539,92.7448501586914,Left
3215.3681640625,252944,1,1763.0,1759.0,1707.0,1715.0,1495.0,1727.0,1763.0,1763.0,149.74562072753906,-10.148050308227539,92.7448501586914,Left
3217.3681640625,252944,1,1757.0,1753.0,1663.0,1643.0,1686.0,1683.0,1753.0,1694.0,149.74562072753906,-10.148050308227539,92.7448501586914,Left
3219.3681640625,252944,1,1765.0,1765.0,1715.0,1783.0,1563.0,1688.0,1767.0,1880.0,149.74562072753906,-10.148050308227539,92.7448501586914,Left
3212.06005859375,252945,1,1757.0,1766.0,1735.0,1701.0,1739.0,1715.0,1755.0,1815.0,149.74562072753906,-10.148050308227539,92.7448501586914,Left
3214.06005859375,252945,1,1765.0,1749.0,1759.0,1783.0,1581.0,1709.0,1764.0,1835.0,149.74562072753906,-10.148050308227539,92.7448501586914,Left
3216.06005859375,252945,1,1765.0,1765.0,1862.0,1805.0,1557.0,2040.0,1764.0,1706.0,149.74562072753906,-10.148050308227539,92.7448501586914,Left
3218.06005859375,252945,1,1764.0,1750.0,1877.0,1863.0,1955.0,1749.0,1751.0,1653.0,149.74562072753906,-10.148050308227539,92.7448501586914,Left
3220.06005859375,252945,1,1764.0,1763.0,1803.0,1735.0,1703.0,1775.0,1755.0,1699.0,149.74562072753906,-10.148050308227539,92.7448501586914,Left
3212.744873046875,252946,1,1756.0,1758.0,1646.0,1661.0,2053.0,1775.0,1766.0,1727.0,149.69944763183594,-9.784761428833008,92.87124633789062,Left
3214.744873046875,252946,1,1765.0,1751.0,1735.0,1815.0,1726.0,1749.0,1755.0,1723.0,149.69944763183594,-9.784761428833008,92.87124633789062,Left
3216.744873046875,252946,1,1761.0,1764.0,1736.0,1839.0,1725.0,1715.0,1752.0,1747.0,149.69944763183594,-9.784761428833008,92.87124633789062,Left
3218.744873046875,252946,1,1765.0,1763.0,1692.0,1639.0,1763.0,1685.0,1764.0,1723.0,149.69944763183594,-9.784761428833008,92.87124633789062,Left
3220.744873046875,252946,1,1765.0,1763.0,1687.0,1735.0,1621.0,1699.0,1765.0,1843.0,149.69944763183594,-9.784761428833008,92.87124633789062,Left
3213.319091796875,252947,1,1743.0,1753.0,1741.0,1779.0,1740.0,1708.0,1759.0,1838.0,149.69944763183594,-9.784761428833008,92.87124633789062,Left
3215.319091796875,252947,1,1765.0,1752.0,1839.0,1829.0,1781.0,1719.0,1767.0,1853.0,149.69944763183594,-9.784761428833008,92.87124633789062,Left
3217.319091796875,252947,1,1768.0,1765.0,1861.0,1747.0,2023.0,2133.0,1765.0,1751.0,149.69944763183594,-9.784761428833008,92.87124633789062,Left
3219.319091796875,252947,1,1765.0,1749.0,1829.0,1847.0,1303.0,1741.0,1749.0,1657.0,149.69944763183594,-9.784761428833008,92.87124633789062,Left
3221.319091796875,252947,1,1764.0,1764.0,1803.0,1753.0,1561.0,1785.0,1767.0,1705.0,149.69944763183594,-9.784761428833008,92.87124633789062,Left
3213.76416015625,252948,1,1758.0,1751.0,1737.0,1723.0,2207.0,1771.0,1755.0,1717.0,149.69944763183594,-9.784761428833008,92.87124633789062,Left
3215.76416015625,252948,1,1755.0,1764.0,1756.0,1787.0,1781.0,1759.0,1766.0,1742.0,149.69944763183594,-9.784761428833008,92.87124633789062,Left
3217.76416015625,252948,1,1763.0,1763.0,1720.0,1775.0,1683.0,1723.0,1765.0,1763.0,149.69944763183594,-9.784761428833008,92.87124633789062,Left
3219.76416015625,252948,1,1753.0,1763.0,1675.0,1749.0,1525.0,1659.0,1753.0,1735.0,149.69944763183594,-9.784761428833008,92.87124633789062,Left
3221.76416015625,252948,1,1763.0,1763.0,1673.0,1737.0,2104.0,1673.0,1767.0,1853.0,149.69944763183594,-9.784761428833008,92.87124633789062,Left
3214.282958984375,252949,1,1763.0,1752.0,1733.0,1735.0,1553.0,1684.0,1747.0,1815.0,149.69944763183594,-9.784761428833008,92.87124633789062,Left
3216.282958984375,252949,1,1763.0,1757.0,1772.0,1787.0,1619.0,1711.0,1765.0,1817.0,149.69944763183594,-9.784761428833008,92.87124633789062,Left
3218.282958984375,252949,1,1754.0,1763.0,1862.0,1756.0,1725.0,2167.0,1763.0,1740.0,149.69944763183594,-9.784761428833008,92.87124633789062,Left
3220.282958984375,252949,1,1755.0,1767.0,1870.0,1769.0,1815.0,1755.0,1767.0,1689.0,149.69944763183594,-9.784761428833008,92.87124633789062,Left
3222.282958984375,252949,1,1762.0,1765.0,1814.0,1787.0,1466.0,1775.0,1767.0,1701.0,149.69944763183594,-9.784761428833008,92.87124633789062,Left
3214.768798828125,252950,1,1763.0,1757.0,1737.0,1767.0,1910.0,1775.0,1755.0,1705.0,149.69944763183594,-9.784761428833008,92.87124633789062,Left
3216.768798828125,252950,1,1759.0,1753.0,1658.0,1783.0,1973.0,1752.0,1767.0,1707.0,149.69944763183594,-9.784761428833008,92.87124633789062,Left
3218.768798828125,252950,1,1763.0,1767.0,1700.0,1719.0,1701.0,1723.0,1763.0,1741.0,149.69944763183594,-9.784761428833008,92.87124633789062,Left
3220.768798828125,252950,1,1763.0,1763.0,1720.0,1742.0,1695.0,1645.0,1767.0,1739.0,149.69944763183594,-9.784761428833008,92.87124633789062,Left
3222.768798828125,252950,1,1765.0,1759.0,1746.0,1691.0,1695.0,1672.0,1763.0,1855.0,149.69944763183594,-9.784761428833008,92.87124633789062,Left
3215.323974609375,252951,1,1765.0,1762.0,1797.0,1741.0,1725.0,1686.0,1767.0,1847.0,149.69944763183594,-9.784761428833008,92.87124633789062,Left
3217.323974609375,252951,1,1747.0,1751.0,1773.0,1824.0,1894.0,1695.0,1766.0,1843.0,149.69944763183594,-9.784761428833008,92.87124633789062,Left
3219.323974609375,252951,1,1763.0,1763.0,1568.0,1705.0,1311.0,2191.0,1767.0,1687.0,149.69944763183594,-9.784761428833008,92.87124633789062,Left
3221.323974609375,252951,1,1763.0,1765.0,1877.0,1717.0,2437.0,1753.0,1763.0,1656.0,149.69944763183594,-9.784761428833008,92.87124633789062,Left
3223.323974609375,252951,1,1759.0,1759.0,1803.0,1832.0,1949.0,1773.0,1765.0,1703.0,149.69944763183594,-9.784761428833008,92.87124633789062,Left
3215.81005859375,252952,1,1765.0,1764.0,1799.0,1827.0,1993.0,1759.0,1763.0,1721.0,149.69944763183594,-9.784761428833008,92.87124633789062,Left
3217.81005859375,252952,1,1749.0,1749.0,1755.0,1738.0,1738.0,1747.0,1767.0,1723.0,149.69944763183594,-9.784761428833008,92.87124633789062,Left
3219.81005859375,252952,1,1764.0,1764.0,1720.0,1655.0,1235.0,1717.0,1754.0,1743.0,149.69944763183594,-9.784761428833008,92.87124633789062,Left
3221.81005859375,252952,1,1763.0,1759.0,1741.0,1695.0,1847.0,1635.0,1753.0,1741.0,149.77236938476562,-9.989319801330566,92.76081085205078,Left
3223.81005859375,252952,1,1763.0,1751.0,1751.0,1757.0,1893.0,1653.0,1762.0,1880.0,149.77236938476562,-9.989319801330566,92.76081085205078,Left
3216.13818359375,252953,1,1763.0,1764.0,1785.0,1820.0,1617.0,1685.0,1765.0,1823.0,149.77236938476562,-9.989319801330566,92.76081085205078,Left
3218.13818359375,252953,1,1763.0,1757.0,1828.0,1779.0,1863.0,1696.0,1751.0,1813.0,149.77236938476562,-9.989319801330566,92.76081085205078,Left
3220.13818359375,252953,1,1765.0,1763.0,1565.0,1696.0,1610.0,2235.0,1755.0,1710.0,149.77236938476562,-9.989319801330566,92.76081085205078,Left
3222.13818359375,252953,1,1751.0,1752.0,1811.0,1721.0,1816.0,1727.0,1767.0,1623.0,149.77236938476562,-9.989319801330566,92.76081085205078,Left
3224.13818359375,252953,1,1753.0,1767.0,1775.0,1779.0,1579.0,1756.0,1764.0,1687.0,149.77236938476562,-9.989319801330566,92.76081085205078,Left
3216.443115234375,252954,1,1757.0,1767.0,1772.0,1733.0,2159.0,1757.0,1745.0,1763.0,149.77236938476562,-9.989319801330566,92.76081085205078,Left
3218.443115234375,252954,1,1759.0,1763.0,1817.0,1839.0,1753.0,1740.0,1764.0,1773.0,149.77236938476562,-9.989319801330566,92.76081085205078,Left
3220.443115234375,252954,1,1755.0,1763.0,1743.0,1961.0,1649.0,1701.0,1767.0,1749.0,149.77236938476562,-9.989319801330566,92.76081085205078,Left
3222.443115234375,252954,1,1763.0,1763.0,1669.0,1725.0,1737.0,1645.0,1765.0,1735.0,149.77236938476562,-9.989319801330566,92.76081085205078,Left
3224.443115234375,252954,1,1763.0,1765.0,1715.0,1726.0,1622.0,1671.0,1766.0,1833.0,149.77236938476562,-9.989319801330566,92.76081085205078,Left
3216.840087890625,252955,1,1763.0,1749.0,1781.0,1592.0,1883.0,1691.0,1766.0,1784.0,149.77236938476562,-9.989319801330566,92.76081085205078,Left
3218.840087890625,252955,1,1765.0,1765.0,1781.0,1607.0,1619.0,1703.0,1763.0,1823.0,149.77236938476562,-9.989319801330566,92.76081085205078,Left
3220.840087890625,252955,1,1763.0,1765.0,1823.0,1753.0,1718.0,1946.0,1763.0,1739.0,149.77236938476562,-9.989319801330566,92.76081085205078,Left
3222.840087890625,252955,1,1763.0,1751.0,1820.0,1869.0,1933.0,1765.0,1765.0,1663.0,149.77236938476562,-9.989319801330566,92.76081085205078,Left
3224.840087890625,252955,1,1763.0,1761.0,1802.0,1773.0,1675.0,1799.0,1763.0,1700.0,149.77236938476562,-9.989319801330566,92.76081085205078,Left
3217.222900390625,252956,1,1762.0,1751.0,1783.0,1736.0,1549.0,1787.0,1764.0,1719.0,149.77236938476562,-9.989319801330566,92.76081085205078,Left
3219.222900390625,252956,1,1763.0,1765.0,1747.0,1745.0,1791.0,1762.0,1768.0,1719.0,149.77236938476562,-9.989319801330566,92.76081085205078,Left
3221.222900390625,252956,1,1762.0,1761.0,1657.0,1819.0,2040.0,1724.0,1753.0,1753.0,149.77236938476562,-9.989319801330566,92.76081085205078,Left
3223.222900390625,252956,1,1759.0,1749.0,1702.0,1806.0,1807.0,1677.0,1763.0,1757.0,149.77236938476562,-9.989319801330566,92.76081085205078,Left
3225.222900390625,252956,1,1763.0,1763.0,1673.0,1635.0,1771.0,1691.0,1767.0,1839.0,149.77236938476562,-9.989319801330566,92.76081085205078,Left
3217.56494140625,252957,1,1763.0,1757.0,1751.0,1883.0,1407.0,1705.0,1765.0,1823.0,149.77236938476562,-9.989319801330566,92.76081085205078,Left
3219.56494140625,252957,1,1763.0,1759.0,1828.0,1763.0,2019.0,1715.0,1763.0,1836.0,149.77236938476562,-9.989319801330566,92.76081085205078,Left
3221.56494140625,252957,1,1763.0,1763.0,1871.0,1819.0,1884.0,1977.0,1763.0,1739.0,149.77236938476562,-9.989319801330566,92.76081085205078,Left
3223.56494140625,252957,1,1753.0,1763.0,1844.0,1703.0,1693.0,1784.0,1765.0,1649.0,149.77236938476562,-9.989319801330566,92.76081085205078,Left
3225.56494140625,252957,1,1753.0,1766.0,1765.0,1688.0,1818.0,1799.0,1765.0,1693.0,149.77236938476562,-9.989319801330566,92.76081085205078,Left
3222.449951171875,252958,1,1764.0,1751.0,1741.0,1823.0,1823.0,1773.0,1749.0,1739.0,149.77236938476562,-9.989319801330566,92.76081085205078,Left
3224.449951171875,252958,1,1751.0,1763.0,1715.0,1724.0,1659.0,1765.0,1768.0,1739.0,149.77236938476562,-9.989319801330566,92.76081085205078,Left
3226.449951171875,252958,1,1755.0,1765.0,1727.0,1717.0,1735.0,1725.0,1756.0,1740.0,149.77236938476562,-9.989319801330566,92.76081085205078,Left
3228.449951171875,252958,1,1764.0,1759.0,1757.0,1868.0,1683.0,1673.0,1753.0,1751.0,149.77236938476562,-9.989319801330566,92.76081085205078,Left
3230.449951171875,252958,1,1761.0,1763.0,1749.0,1775.0,1883.0,1691.0,1767.0,1848.0,149.77236938476562,-9.989319801330566,92.76081085205078,Left
3234.903076171875,252959,1,1757.0,1751.0,1435.0,1811.0,1703.0,1701.0,1756.0,1771.0,150.2015838623047,-9.897317886352539,92.54698944091797,Left
3236.903076171875,252959,1,1759.0,1761.0,1851.0,1692.0,1845.0,1717.0,1765.0,1815.0,150.2015838623047,-9.897317886352539,92.54698944091797,Left
3238.903076171875,252959,1,1763.0,1764.0,1904.0,1685.0,1635.0,2109.0,1767.0,1741.0,150.2015838623047,-9.897317886352539,92.54698944091797,Left
3240.903076171875,252959,1,1763.0,1754.0,1837.0,1734.0,1965.0,1756.0,1767.0,1671.0,150.2015838623047,-9.897317886352539,92.54698944091797,Left
3242.903076171875,252959,1,1765.0,1763.0,1716.0,1711.0,1670.0,1783.0,1765.0,1692.0,150.2015838623047,-9.897317886352539,92.54698944091797,Left
3246.630859375,252960,1,1764.0,1766.0,1772.0,1775.0,1877.0,1775.0,1747.0,1720.0,150.2015838623047,-9.897317886352539,92.54698944091797,Left
3248.630859375,252960,1,1757.0,1773.0,1763.0,1830.0,1695.0,1755.0,1764.0,1739.0,150.2015838623047,-9.897317886352539,92.54698944091797,Left
3250.630859375,252960,1,1765.0,1763.0,1773.0,1767.0,1837.0,1718.0,1763.0,1768.0,150.2015838623047,-9.897317886352539,92.54698944091797,Left
3252.630859375,252960,1,1767.0,1767.0,1762.0,1765.0,1608.0,1656.0,1767.0,1739.0,150.2015838623047,-9.897317886352539,92.54698944091797,Left
3254.630859375,252960,1,1765.0,1757.0,1708.0,1701.0,1717.0,1687.0,1763.0,1837.0,150.2015838623047,-9.897317886352539,92.54698944091797,Left
3254.64111328125,252961,1,1763.0,1765.0,1583.0,1749.0,2003.0,1699.0,1753.0,1823.0,150.2015838623047,-9.897317886352539,92.54698944091797,Left
3256.64111328125,252961,1,1755.0,1752.0,1739.0,1753.0,1797.0,1707.0,1747.0,1833.0,150.2015838623047,-9.897317886352539,92.54698944091797,Left
3258.64111328125,252961,1,1765.0,1764.0,1877.0,1771.0,1726.0,2158.0,1767.0,1688.0,150.2015838623047,-9.897317886352539,92.54698944091797,Left
3260.64111328125,252961,1,1753.0,1766.0,1869.0,1831.0,1891.0,1756.0,1755.0,1683.0,150.2015838623047,-9.897317886352539,92.54698944091797,Left
3262.64111328125,252961,1,1765.0,1763.0,1829.0,1727.0,1565.0,1781.0,1767.0,1703.0,150.2015838623047,-9.897317886352539,92.54698944091797,Left
3274.253173828125,252962,1,1763.0,1765.0,1774.0,1773.0,1525.0,1781.0,1764.0,1714.0,150.2015838623047,-9.897317886352539,92.54698944091797,Left
3276.253173828125,252962,1,1752.0,1745.0,1769.0,1737.0,2063.0,1762.0,1755.0,1753.0,150.2015838623047,-9.897317886352539,92.54698944091797,Left
3278.253173828125,252962,1,1766.0,1765.0,1747.0,1786.0,1686.0,1725.0,1754.0,1735.0,150.2015838623047,-9.897317886352539,92.54698944091797,Left
3280.253173828125,252962,1,1767.0,1765.0,1703.0,1843.0,1565.0,1655.0,1767.0,1728.0,150.2015838623047,-9.897317886352539,92.54698944091797,Left
3282.253173828125,252962,1,1753.0,1755.0,1723.0,1753.0,1431.0,1675.0,1764.0,1871.0,150.2015838623047,-9.897317886352539,92.54698944091797,Left
3275.6630859375,252963,1,1765.0,1763.0,1685.0,1811.0,2444.0,1682.0,1758.0,1847.0,150.2015838623047,-9.897317886352539,92.54698944091797,Left
3277.6630859375,252963,1,1755.0,1763.0,1814.0,1785.0,1657.0,1703.0,1755.0,1851.0,150.2015838623047,-9.897317886352539,92.54698944091797,Left
3279.6630859375,252963,1,1751.0,1771.0,1781.0,1699.0,2031.0,2221.0,1765.0,1715.0,150.2015838623047,-9.897317886352539,92.54698944091797,Left
3281.6630859375,252963,1,1755.0,1763.0,1691.0,1775.0,1791.0,1753.0,1766.0,1612.0,150.2015838623047,-9.897317886352539,92.54698944091797,Left
3283.6630859375,252963,1,1759.0,1764.0,1765.0,1925.0,1606.0,1783.0,1753.0,1693.0,150.2015838623047,-9.897317886352539,92.54698944091797,Left
3312.538818359375,252964,1,1763.0,1758.0,1843.0,1746.0,1652.0,1783.0,1765.0,1759.0,150.2015838623047,-9.897317886352539,92.54698944091797,Left
3314.538818359375,252964,1,1763.0,1763.0,1815.0,1689.0,1422.0,1747.0,1765.0,1767.0,150.2015838623047,-9.897317886352539,92.54698944091797,Left
3316.538818359375,252964,1,1765.0,1755.0,1773.0,1623.0,1599.0,1722.0,1765.0,1734.0,150.2015838623047,-9.897317886352539,92.54698944091797,Left
3318.538818359375,252964,1,1761.0,1764.0,1696.0,1708.0,2283.0,1619.0,1765.0,1717.0,150.2015838623047,-9.897317886352539,92.54698944091797,Left
3320.538818359375,252964,1,1763.0,1751.0,1765.0,1821.0,1482.0,1651.0,1755.0,1853.0,150.2015838623047,-9.897317886352539,92.54698944091797,Left
3316.525146484375,252965,1,1765.0,1763.0,1622.0,1846.0,1688.0,1677.0,1766.0,1785.0,150.2015838623047,-9.897317886352539,92.54698944091797,Left
3318.525146484375,252965,1,1765.0,1764.0,1595.0,1739.0,1955.0,1690.0,1763.0,1828.0,150.2015838623047,-9.897317886352539,92.54698944091797,Left
3320.525146484375,252965,1,1763.0,1752.0,1947.0,1747.0,1747.0,2220.0,1753.0,1736.0,150.4075927734375,-9.789464950561523,92.2529067993164,Left
3322.525146484375,252965,1,1763.0,1765.0,1864.0,1755.0,1884.0,1773.0,1766.0,1673.0,150.4075927734375,-9.789464950561523,92.2529067993164,Left
3324.525146484375,252965,1,1765.0,1755.0,1805.0,1787.0,1719.0,1784.0,1765.0,1737.0,150.4075927734375,-9.789464950561523,92.2529067993164,Left
3317.421142578125,252966,1,1765.0,1753.0,1763.0,1801.0,1539.0,1779.0,1767.0,1753.0,150.4075927734375,-9.789464950561523,92.2529067993164,Left
3319.421142578125,252966,1,1755.0,1763.0,1763.0,1837.0,1414.0,1763.0,1765.0,1751.0,150.4075927734375,-9.789464950561523,92.2529067993164,Left
3321.421142578125,252966,1,1763.0,1762.0,1723.0,1720.0,2132.0,1717.0,1755.0,1735.0,150.4075927734375,-9.789464950561523,92.2529067993164,Left
3323.421142578125,252966,1,1763.0,1751.0,1631.0,1671.0,2310.0,1612.0,1765.0,1753.0,150.4075927734375,-9.789464950561523,92.2529067993164,Left
3325.421142578125,252966,1,1754.0,1757.0,1702.0,1787.0,1625.0,1639.0,1767.0,1849.0,150.4075927734375,-9.789464950561523,92.2529067993164,Left
3318.067138671875,252967,1,1763.0,1762.0,1736.0,1742.0,1802.0,1651.0,1752.0,1817.0,150.4075927734375,-9.789464950561523,92.2529067993164,Left
3320.067138671875,252967,1,1753.0,1763.0,1807.0,1763.0,1652.0,1671.0,1764.0,1845.0,150.4075927734375,-9.789464950561523,92.2529067993164,Left
3322.067138671875,252967,1,1763.0,1759.0,1875.0,1786.0,1918.0,2215.0,1763.0,1723.0,150.4075927734375,-9.789464950561523,92.2529067993164,Left
3324.067138671875,252967,1,1759.0,1763.0,1806.0,1791.0,1564.0,1773.0,1764.0,1661.0,150.4075927734375,-9.789464950561523,92.2529067993164,Left
3326.067138671875,252967,1,1752.0,1765.0,1823.0,1735.0,1629.0,1791.0,1763.0,1701.0,150.4075927734375,-9.789464950561523,92.2529067993164,Left
3324.049072265625,252968,1,1759.0,1757.0,1759.0,1772.0,1607.0,1772.0,1755.0,1733.0,150.4075927734375,-9.789464950561523,92.2529067993164,Left
3326.049072265625,252968,1,1763.0,1763.0,1741.0,1831.0,1783.0,1756.0,1756.0,1766.0,150.4075927734375,-9.789464950561523,92.2529067993164,Left
3328.049072265625,252968,1,1767.0,1767.0,1723.0,1693.0,1657.0,1717.0,1765.0,1749.0,150.4075927734375,-9.789464950561523,92.2529067993164,Left
3330.049072265625,252968,1,1753.0,1764.0,1678.0,1784.0,1989.0,1612.0,1767.0,1737.0,150.4075927734375,-9.789464950561523,92.2529067993164,Left
3332.049072265625,252968,1,1753.0,1753.0,1677.0,1725.0,1750.0,1638.0,1765.0,1823.0,150.4075927734375,-9.789464950561523,92.2529067993164,Left
3334.005126953125,252969,1,1763.0,1764.0,1651.0,1779.0,1806.0,1648.0,1766.0,1811.0,150.4075927734375,-9.789464950561523,92.2529067993164,Left
3336.005126953125,252969,1,1753.0,1755.0,1875.0,1771.0,1757.0,1679.0,1763.0,1848.0,150.4075927734375,-9.789464950561523,92.2529067993164,Left
3338.005126953125,252969,1,1759.0,1759.0,1838.0,1771.0,1525.0,2027.0,1763.0,1717.0,150.4075927734375,-9.789464950561523,92.2529067993164,Left
3340.005126953125,252969,1,1762.0,1761.0,1699.0,1767.0,1790.0,1791.0,1763.0,1642.0,150.4075927734375,-9.789464950561523,92.2529067993164,Left
3342.005126953125,252969,1,1765.0,1765.0,1815.0,1763.0,1627.0,1812.0,1764.0,1716.0,150.4075927734375,-9.789464950561523,92.2529067993164,Left
3357.216064453125,252970,1,1764.0,1765.0,1769.0,1739.0,1567.0,1797.0,1751.0,1766.0,150.4075927734375,-9.789464950561523,92.2529067993164,Left
3359.216064453125,252970,1,1763.0,1753.0,1769.0,1751.0,1891.0,1765.0,1757.0,1763.0,150.4075927734375,-9.789464950561523,92.2529067993164,Left
3361.216064453125,252970,1,1765.0,1762.0,1772.0,1823.0,2377.0,1720.0,1767.0,1737.0,150.4075927734375,-9.789464950561523,92.2529067993164,Left
3363.216064453125,252970,1,1764.0,1763.0,1715.0,1769.0,1851.0,1625.0,1769.0,1736.0,150.4075927734375,-9.789464950561523,92.2529067993164,Left
3365.216064453125,252970,1,1764.0,1763.0,1663.0,1699.0,1515.0,1646.0,1765.0,1835.0,150.4075927734375,-9.789464950561523,92.2529067993164,Left
3358.12109375,252971,1,1763.0,1752.0,1645.0,1735.0,1717.0,1685.0,1755.0,1809.0,150.4075927734375,-9.789464950561523,92.2529067993164,Left
3360.12109375,252971,1,1759.0,1765.0,1820.0,1756.0,1891.0,1696.0,1763.0,1835.0,150.4075927734375,-9.789464950561523,92.2529067993164,Left
3362.12109375,252971,1,1759.0,1761.0,1870.0,1765.0,1481.0,2157.0,1763.0,1718.0,150.4075927734375,-9.789464950561523,92.2529067993164,Left
3364.12109375,252971,1,1762.0,1762.0,1827.0,1759.0,1507.0,1797.0,1763.0,1671.0,150.4075927734375,-9.789464950561523,92.2529067993164,Left
3366.12109375,252971,1,1752.0,1752.0,1829.0,1800.0,2067.0,1813.0,1767.0,1716.0,150.4075927734375,-9.789464950561523,92.2529067993164,Left
3367.89013671875,252972,1,1763.0,1763.0,1806.0,1843.0,1799.0,1805.0,1766.0,1750.0,150.44102478027344,-9.842986106872559,92.14604187011719,Left
3369.89013671875,252972,1,1765.0,1763.0,1749.0,1621.0,1771.0,1772.0,1763.0,1749.0,150.44102478027344,-9.842986106872559,92.14604187011719,Left
3371.89013671875,252972,1,1753.0,1769.0,1845.0,1847.0,1597.0,1722.0,1755.0,1755.0,150.44102478027344,-9.842986106872559,92.14604187011719,Left
3373.89013671875,252972,1,1763.0,1763.0,1591.0,1672.0,1607.0,1619.0,1758.0,1709.0,150.44102478027344,-9.842986106872559,92.14604187011719,Left
3375.89013671875,252972,1,1763.0,1763.0,1485.0,1683.0,1880.0,1639.0,1763.0,1803.0,150.44102478027344,-9.842986106872559,92.14604187011719,Left
3378.455078125,252973,1,1755.0,1751.0,1695.0,1784.0,1898.0,1657.0,1753.0,1799.0,150.44102478027344,-9.842986106872559,92.14604187011719,Left
3380.455078125,252973,1,1763.0,1753.0,1837.0,1827.0,1579.0,1685.0,1761.0,1861.0,150.44102478027344,-9.842986106872559,92.14604187011719,Left
3382.455078125,252973,1,1757.0,1765.0,1993.0,1833.0,1765.0,2231.0,1767.0,1735.0,150.44102478027344,-9.842986106872559,92.14604187011719,Left
3384.455078125,252973,1,1763.0,1753.0,1668.0,1727.0,1751.0,1791.0,1764.0,1654.0,150.44102478027344,-9.842986106872559,92.14604187011719,Left
3386.455078125,252973,1,1765.0,1765.0,1759.0,1689.0,1983.0,1805.0,1765.0,1703.0,150.44102478027344,-9.842986106872559,92.14604187011719,Left
3403.48193359375,252974,1,1754.0,1751.0,1643.0,1818.0,1694.0,1782.0,1766.0,1694.0,150.44102478027344,-9.842986106872559,92.14604187011719,Left
3405.48193359375,252974,1,1767.0,1763.0,1747.0,1743.0,1397.0,1763.0,1767.0,1751.0,150.44102478027344,-9.842986106872559,92.14604187011719,Left
3407.48193359375,252974,1,1764.0,1767.0,1811.0,1707.0,1968.0,1716.0,1742.0,1789.0,150.44102478027344,-9.842986106872559,92.14604187011719,Left
3409.48193359375,252974,1,1767.0,1761.0,1725.0,1707.0,1722.0,1604.0,1755.0,1767.0,150.44102478027344,-9.842986106872559,92.14604187011719,Left
3411.48193359375,252974,1,1764.0,1763.0,1711.0,1747.0,1763.0,1615.0,1768.0,1839.0,150.44102478027344,-9.842986106872559,92.14604187011719,Left
3419.47607421875,252975,1,1756.0,1762.0,1779.0,1819.0,1765.0,1631.0,1756.0,1791.0,150.44102478027344,-9.842986106872559,92.14604187011719,Left
3421.47607421875,252975,1,1767.0,1752.0,1827.0,1802.0,1775.0,1675.0,1765.0,1804.0,150.44102478027344,-9.842986106872559,92.14604187011719,Left
3423.47607421875,252975,1,1763.0,1764.0,1876.0,1775.0,1755.0,2084.0,1767.0,1717.0,150.44102478027344,-9.842986106872559,92.14604187011719,Left
3425.47607421875,252975,1,1759.0,1765.0,1821.0,1788.0,1455.0,1821.0,1765.0,1657.0,150.44102478027344,-9.842986106872559,92.14604187011719,Left
3427.47607421875,252975,1,1763.0,1763.0,1771.0,1764.0,1582.0,1823.0,1765.0,1703.0,150.44102478027344,-9.842986106872559,92.14604187011719,Left
3420.43603515625,252976,1,1762.0,1767.0,1757.0,1749.0,1892.0,1791.0,1753.0,1715.0,150.44102478027344,-9.842986106872559,92.14604187011719,Left
3422.43603515625,252976,1,1755.0,1759.0,1725.0,1746.0,1911.0,1775.0,1767.0,1749.0,150.44102478027344,-9.842986106872559,92.14604187011719,Left
3424.43603515625,252976,1,1764.0,1764.0,1741.0,1839.0,1647.0,1737.0,1763.0,1783.0,150.44102478027344,-9.842986106872559,92.14604187011719,Left
3426.43603515625,252976,1,1758.0,1763.0,1687.0,1615.0,1575.0,1608.0,1764.0,1751.0,150.44102478027344,-9.842986106872559,92.14604187011719,Left
3428.43603515625,252976,1,1752.0,1763.0,1673.0,1735.0,2095.0,1619.0,1763.0,1867.0,150.44102478027344,-9.842986106872559,92.14604187011719,Left
3421.0419921875,252977,1,1764.0,1764.0,1737.0,1755.0,2039.0,1655.0,1768.0,1789.0,150.44102478027344,-9.842986106872559,92.14604187011719,Left
3423.0419921875,252977,1,1763.0,1757.0,1779.0,1712.0,1647.0,1675.0,1767.0,1779.0,150.44102478027344,-9.842986106872559,92.14604187011719,Left
3425.0419921875,252977,1,1758.0,1763.0,1848.0,1781.0,1631.0,2099.0,1753.0,1708.0,150.44102478027344,-9.842986106872559,92.14604187011719,Left
3427.0419921875,252977,1,1764.0,1763.0,1741.0,1757.0,1721.0,1815.0,1755.0,1679.0,150.44102478027344,-9.842986106872559,92.14604187011719,Left
3429.0419921875,252977,1,1766.0,1750.0,1823.0,1717.0,1646.0,1823.0,1765.0,1709.0,150.44102478027344,-9.842986106872559,92.14604187011719,Left
3423.26220703125,252978,1,1755.0,1747.0,1781.0,1813.0,1853.0,1815.0,1763.0,1736.0,150.44102478027344,-9.842986106872559,92.14604187011719,Left
3425.26220703125,252978,1,1754.0,1761.0,1741.0,1804.0,1483.0,1781.0,1755.0,1739.0,150.44102478027344,-9.842986106872559,92.14604187011719,Left
3427.26220703125,252978,1,1759.0,1763.0,1746.0,1783.0,2145.0,1740.0,1765.0,1767.0,150.5259246826172,-9.84075927734375,92.05561828613281,Left
3429.26220703125,252978,1,1749.0,1747.0,1653.0,1757.0,1805.0,1613.0,1766.0,1733.0,150.5259246826172,-9.84075927734375,92.05561828613281,Left
3431.26220703125,252978,1,1763.0,1763.0,1693.0,1779.0,1783.0,1621.0,1767.0,1852.0,150.5259246826172,-9.84075927734375,92.05561828613281,Left
3434.58203125,252979,1,1759.0,1763.0,1747.0,1790.0,1723.0,1629.0,1755.0,1813.0,150.5259246826172,-9.84075927734375,92.05561828613281,Left
3436.58203125,252979,1,1765.0,1753.0,1831.0,1750.0,1450.0,1672.0,1765.0,1830.0,150.5259246826172,-9.84075927734375,92.05561828613281,Left
3438.58203125,252979,1,1763.0,1763.0,1877.0,1688.0,1893.0,2069.0,1765.0,1739.0,150.5259246826172,-9.84075927734375,92.05561828613281,Left
3440.58203125,252979,1,1757.0,1751.0,1789.0,1783.0,1835.0,1820.0,1764.0,1670.0,150.5259246826172,-9.84075927734375,92.05561828613281,Left
3442.58203125,252979,1,1763.0,1764.0,1757.0,1753.0,1654.0,1823.0,1763.0,1707.0,150.5259246826172,-9.84075927734375,92.05561828613281,Left
3445.595947265625,252980,1,1763.0,1763.0,1715.0,1779.0,1389.0,1811.0,1757.0,1701.0,150.5259246826172,-9.84075927734375,92.05561828613281,Left
3447.595947265625,252980,1,1753.0,1765.0,1719.0,1727.0,1639.0,1771.0,1765.0,1704.0,150.5259246826172,-9.84075927734375,92.05561828613281,Left
3449.595947265625,252980,1,1765.0,1758.0,1741.0,1767.0,2138.0,1733.0,1763.0,1723.0,150.5259246826172,-9.84075927734375,92.05561828613281,Left
3451.595947265625,252980,1,1764.0,1765.0,1676.0,1819.0,1627.0,1612.0,1764.0,1752.0,150.5259246826172,-9.84075927734375,92.05561828613281,Left
3453.595947265625,252980,1,1759.0,1761.0,1694.0,1737.0,1779.0,1608.0,1753.0,1897.0,150.5259246826172,-9.84075927734375,92.05561828613281,Left
3459.579833984375,252981,1,1765.0,1759.0,1715.0,1800.0,1879.0,1643.0,1765.0,1813.0,150.5259246826172,-9.84075927734375,92.05561828613281,Left
3461.579833984375,252981,1,1765.0,1763.0,1803.0,1681.0,1743.0,1709.0,1757.0,1833.0,150.5259246826172,-9.84075927734375,92.05561828613281,Left
3463.579833984375,252981,1,1752.0,1765.0,1885.0,1785.0,1799.0,2223.0,1765.0,1708.0,150.5259246826172,-9.84075927734375,92.05561828613281,Left
3465.579833984375,252981,1,1761.0,1753.0,1829.0,1741.0,1779.0,1798.0,1769.0,1684.0,150.5259246826172,-9.84075927734375,92.05561828613281,Left
3467.579833984375,252981,1,1754.0,1757.0,1815.0,1797.0,1837.0,1803.0,1766.0,1695.0,150.5259246826172,-9.84075927734375,92.05561828613281,Left
3462.872314453125,252982,1,1763.0,1763.0,1835.0,1635.0,1256.0,1801.0,1763.0,1689.0,150.5259246826172,-9.84075927734375,92.05561828613281,Left
3464.872314453125,252982,1,1756.0,1759.0,1715.0,1879.0,2035.0,1767.0,1757.0,1745.0,150.5259246826172,-9.84075927734375,92.05561828613281,Left
3466.872314453125,252982,1,1753.0,1753.0,1635.0,1703.0,1685.0,1716.0,1765.0,1737.0,150.5259246826172,-9.84075927734375,92.05561828613281,Left
3468.872314453125,252982,1,1765.0,1745.0,1690.0,1788.0,1682.0,1588.0,1763.0,1767.0,150.5259246826172,-9.84075927734375,92.05561828613281,Left
3470.872314453125,252982,1,1763.0,1767.0,1743.0,1737.0,1897.0,1597.0,1763.0,1846.0,150.5259246826172,-9.84075927734375,92.05561828613281,Left
3476.743896484375,252983,1,1752.0,1758.0,1643.0,1703.0,1763.0,1627.0,1765.0,1818.0,150.5259246826172,-9.84075927734375,92.05561828613281,Left
3478.743896484375,252983,1,1757.0,1765.0,1863.0,1827.0,1797.0,1671.0,1765.0,1865.0,150.5259246826172,-9.84075927734375,92.05561828613281,Left
3480.743896484375,252983,1,1763.0,1751.0,1899.0,1734.0,1747.0,2041.0,1765.0,1709.0,150.5259246826172,-9.84075927734375,92.05561828613281,Left
3482.743896484375,252983,1,1767.0,1752.0,1597.0,1779.0,1621.0,1815.0,1765.0,1634.0,150.5259246826172,-9.84075927734375,92.05561828613281,Left
3484.743896484375,252983,1,1754.0,1751.0,1799.0,1763.0,1780.0,1817.0,1766.0,1719.0,150.5259246826172,-9.84075927734375,92.05561828613281,Left
3483.46484375,252984,1,1761.0,1751.0,1801.0,1725.0,1719.0,1812.0,1753.0,1721.0,150.5259246826172,-9.84075927734375,92.05561828613281,Left
3485.46484375,252984,1,1763.0,1765.0,1749.0,1720.0,1621.0,1773.0,1767.0,1711.0,150.5259246826172,-9.84075927734375,92.05561828613281,Left
3487.46484375,252984,1,1754.0,1765.0,1721.0,1773.0,1545.0,1721.0,1765.0,1735.0,150.5259246826172,-9.84075927734375,92.05561828613281,Left
3489.46484375,252984,1,1759.0,1765.0,1723.0,1816.0,1773.0,1608.0,1767.0,1803.0,150.5259246826172,-9.84075927734375,92.05561828613281,Left
3491.46484375,252984,1,1763.0,1765.0,1644.0,1595.0,1640.0,1608.0,1767.0,1805.0,150.5259246826172,-9.84075927734375,92.05561828613281,Left
3543.090087890625,252985,1,1763.0,1746.0,1755.0,1879.0,2155.0,1642.0,1759.0,1821.0,150.37936401367188,-9.887486457824707,91.9581527709961,Left
3545.090087890625,252985,1,1765.0,1757.0,1824.0,1833.0,2121.0,1684.0,1769.0,1823.0,150.37936401367188,-9.887486457824707,91.9581527709961,Left
3547.090087890625,252985,1,1765.0,1763.0,1889.0,1757.0,981.0,2157.0,1755.0,1715.0,150.37936401367188,-9.887486457824707,91.9581527709961,Left
3549.090087890625,252985,1,1753.0,1764.0,1843.0,1887.0,2007.0,1813.0,1765.0,1687.0,150.37936401367188,-9.887486457824707,91.9581527709961,Left
3551.090087890625,252985,1,1764.0,1765.0,1787.0,1703.0,2277.0,1821.0,1767.0,1688.0,150.37936401367188,-9.887486457824707,91.9581527709961,Left
3543.85595703125,252986,1,1763.0,1759.0,1787.0,1738.0,1545.0,1802.0,1761.0,1720.0,150.37936401367188,-9.887486457824707,91.9581527709961,Left
3545.85595703125,252986,1,1763.0,1762.0,1764.0,1787.0,1575.0,1758.0,1763.0,1719.0,150.37936401367188,-9.887486457824707,91.9581527709961,Left
3547.85595703125,252986,1,1765.0,1758.0,1724.0,1763.0,1598.0,1737.0,1767.0,1745.0,150.37936401367188,-9.887486457824707,91.9581527709961,Left
3549.85595703125,252986,1,1763.0,1759.0,1578.0,1706.0,1701.0,1604.0,1753.0,1720.0,150.37936401367188,-9.887486457824707,91.9581527709961,Left
3551.85595703125,252986,1,1763.0,1767.0,1556.0,1733.0,1577.0,1609.0,1759.0,1849.0,150.37936401367188,-9.887486457824707,91.9581527709961,Left
3544.361083984375,252987,1,1757.0,1746.0,1737.0,1803.0,1709.0,1643.0,1753.0,1811.0,150.37936401367188,-9.887486457824707,91.9581527709961,Left
3546.361083984375,252987,1,1765.0,1764.0,1916.0,1869.0,2175.0,1679.0,1765.0,1850.0,150.37936401367188,-9.887486457824707,91.9581527709961,Left
3548.361083984375,252987,1,1763.0,1765.0,1977.0,1769.0,1817.0,2151.0,1766.0,1718.0,150.37936401367188,-9.887486457824707,91.9581527709961,Left
3550.361083984375,252987,1,1753.0,1752.0,1781.0,1653.0,1741.0,1819.0,1756.0,1677.0,150.37936401367188,-9.887486457824707,91.9581527709961,Left
3552.361083984375,252987,1,1764.0,1763.0,1885.0,1721.0,1619.0,1827.0,1765.0,1688.0,150.37936401367188,-9.887486457824707,91.9581527709961,Left
3544.8759765625,252988,1,1764.0,1763.0,1608.0,1803.0,1812.0,1813.0,1763.0,1703.0,150.37936401367188,-9.887486457824707,91.9581527709961,Left
3546.8759765625,252988,1,1764.0,1765.0,1544.0,1745.0,1835.0,1775.0,1755.0,1714.0,150.37936401367188,-9.887486457824707,91.9581527709961,Left
3548.8759765625,252988,1,1753.0,1757.0,1751.0,1752.0,1645.0,1725.0,1753.0,1737.0,150.37936401367188,-9.887486457824707,91.9581527709961,Left
3550.8759765625,252988,1,1765.0,1757.0,1669.0,1769.0,1637.0,1587.0,1753.0,1765.0,150.37936401367188,-9.887486457824707,91.9581527709961,Left
3552.8759765625,252988,1,1763.0,1751.0,1711.0,1773.0,1799.0,1597.0,1749.0,1866.0,150.37936401367188,-9.887486457824707,91.9581527709961,Left
3545.451171875,252989,1,1761.0,1751.0,1773.0,1745.0,1709.0,1643.0,1747.0,1824.0,150.37936401367188,-9.887486457824707,91.9581527709961,Left
3547.451171875,252989,1,1753.0,1765.0,1831.0,1828.0,1815.0,1685.0,1768.0,1791.0,150.37936401367188,-9.887486457824707,91.9581527709961,Left
3549.451171875,252989,1,1758.0,1763.0,1875.0,1789.0,1821.0,2017.0,1757.0,1671.0,150.37936401367188,-9.887486457824707,91.9581527709961,Left
3551.451171875,252989,1,1757.0,1765.0,1851.0,1751.0,1467.0,1813.0,1767.0,1720.0,150.37936401367188,-9.887486457824707,91.9581527709961,Left
3553.451171875,252989,1,1763.0,1763.0,1817.0,1720.0,1605.0,1820.0,1754.0,1725.0,150.37936401367188,-9.887486457824707,91.9581527709961,Left
3546.56103515625,252990,1,1763.0,1765.0,1781.0,1673.0,2013.0,1799.0,1752.0,1725.0,150.37936401367188,-9.887486457824707,91.9581527709961,Left
3548.56103515625,252990,1,1765.0,1754.0,1691.0,1767.0,1783.0,1767.0,1765.0,1721.0,150.37936401367188,-9.887486457824707,91.9581527709961,Left
3550.56103515625,252990,1,1753.0,1763.0,1623.0,1785.0,1673.0,1719.0,1767.0,1705.0,150.37936401367188,-9.887486457824707,91.9581527709961,Left
3552.56103515625,252990,1,1751.0,1752.0,1686.0,1752.0,1789.0,1603.0,1765.0,1764.0,150.37936401367188,-9.887486457824707,91.9581527709961,Left
3554.56103515625,252990,1,1767.0,1759.0,1702.0,1755.0,1797.0,1627.0,1764.0,1823.0,150.37936401367188,-9.887486457824707,91.9581527709961,Left
3562.042236328125,252991,1,1763.0,1763.0,1749.0,1735.0,1791.0,1652.0,1757.0,1811.0,150.37936401367188,-9.887486457824707,91.9581527709961,Left
3564.042236328125,252991,1,1763.0,1751.0,1853.0,1783.0,1677.0,1685.0,1759.0,1844.0,150.37936401367188,-9.887486457824707,91.9581527709961,Left
3566.042236328125,252991,1,1764.0,1765.0,1902.0,1810.0,1803.0,2291.0,1768.0,1747.0,150.38421630859375,-9.884200096130371,91.77713775634766,Left
3568.042236328125,252991,1,1751.0,1753.0,1803.0,1711.0,1611.0,1779.0,1767.0,1677.0,150.38421630859375,-9.884200096130371,91.77713775634766,Left
3570.042236328125,252991,1,1764.0,1765.0,1772.0,1823.0,1956.0,1799.0,1754.0,1732.0,150.38421630859375,-9.884200096130371,91.77713775634766,Left
3564.692138671875,252992,1,1763.0,1763.0,1781.0,1779.0,1737.0,1791.0,1765.0,1709.0,150.38421630859375,-9.884200096130371,91.77713775634766,Left
3566.692138671875,252992,1,1757.0,1759.0,1717.0,1715.0,1609.0,1767.0,1764.0,1723.0,150.38421630859375,-9.884200096130371,91.77713775634766,Left
3568.692138671875,252992,1,1765.0,1763.0,1701.0,1657.0,1599.0,1727.0,1767.0,1735.0,150.38421630859375,-9.884200096130371,91.77713775634766,Left
3570.692138671875,252992,1,1764.0,1751.0,1647.0,1694.0,1752.0,1605.0,1765.0,1725.0,150.38421630859375,-9.884200096130371,91.77713775634766,Left
3572.692138671875,252992,1,1765.0,1763.0,1685.0,1792.0,1967.0,1591.0,1764.0,1849.0,150.38421630859375,-9.884200096130371,91.77713775634766,Left
3580.5009765625,252993,1,1762.0,1763.0,1755.0,1846.0,1659.0,1635.0,1766.0,1835.0,150.38421630859375,-9.884200096130371,91.77713775634766,Left
3582.5009765625,252993,1,1752.0,1763.0,1816.0,1843.0,1607.0,1702.0,1765.0,1806.0,150.38421630859375,-9.884200096130371,91.77713775634766,Left
3584.5009765625,252993,1,1763.0,1753.0,1880.0,1802.0,1902.0,2203.0,1755.0,1703.0,150.38421630859375,-9.884200096130371,91.77713775634766,Left
3586.5009765625,252993,1,1765.0,1767.0,1821.0,1709.0,1715.0,1819.0,1765.0,1661.0,150.38421630859375,-9.884200096130371,91.77713775634766,Left
3588.5009765625,252993,1,1764.0,1759.0,1783.0,1705.0,1880.0,1827.0,1752.0,1701.0,150.38421630859375,-9.884200096130371,91.77713775634766,Left
3589.010986328125,252994,1,1752.0,1763.0,1772.0,1739.0,1821.0,1813.0,1757.0,1740.0,150.38421630859375,-9.884200096130371,91.77713775634766,Left
3591.010986328125,252994,1,1759.0,1765.0,1711.0,1740.0,1331.0,1772.0,1766.0,1741.0,150.38421630859375,-9.884200096130371,91.77713775634766,Left
3593.010986328125,252994,1,1763.0,1751.0,1711.0,1779.0,1911.0,1734.0,1752.0,1717.0,150.38421630859375,-9.884200096130371,91.77713775634766,Left
3595.010986328125,252994,1,1752.0,1752.0,1694.0,1757.0,2168.0,1604.0,1765.0,1751.0,150.38421630859375,-9.884200096130371,91.77713775634766,Left
3597.010986328125,252994,1,1765.0,1755.0,1673.0,1843.0,1865.0,1583.0,1764.0,1867.0,150.38421630859375,-9.884200096130371,91.77713775634766,Left
3618.91015625,252995,1,1765.0,1765.0,1725.0,1813.0,1637.0,1627.0,1763.0,1839.0,150.38421630859375,-9.884200096130371,91.77713775634766,Left
3620.91015625,252995,1,1759.0,1754.0,1803.0,1707.0,1971.0,1700.0,1767.0,1787.0,150.38421630859375,-9.884200096130371,91.77713775634766,Left
3622.91015625,252995,1,1757.0,1765.0,1861.0,1811.0,1547.0,2079.0,1767.0,1699.0,150.38421630859375,-9.884200096130371,91.77713775634766,Left
3624.91015625,252995,1,1751.0,1757.0,1839.0,1743.0,1763.0,1830.0,1766.0,1677.0,150.38421630859375,-9.884200096130371,91.77713775634766,Left
3626.91015625,252995,1,1759.0,1751.0,1817.0,1765.0,1657.0,1819.0,1757.0,1693.0,150.38421630859375,-9.884200096130371,91.77713775634766,Left
3620.026123046875,252996,1,1763.0,1751.0,1755.0,1721.0,1631.0,1813.0,1763.0,1723.0,150.38421630859375,-9.884200096130371,91.77713775634766,Left
3622.026123046875,252996,1,1765.0,1763.0,1723.0,1755.0,2021.0,1773.0,1767.0,1739.0,150.38421630859375,-9.884200096130371,91.77713775634766,Left
3624.026123046875,252996,1,1763.0,1765.0,1684.0,1765.0,1763.0,1738.0,1755.0,1772.0,150.38421630859375,-9.884200096130371,91.77713775634766,Left
3626.026123046875,252996,1,1763.0,1764.0,1641.0,1815.0,1615.0,1599.0,1763.0,1735.0,150.38421630859375,-9.884200096130371,91.77713775634766,Left
3628.026123046875,252996,1,1762.0,1762.0,1785.0,1757.0,1767.0,1599.0,1761.0,1867.0,150.38421630859375,-9.884200096130371,91.77713775634766,Left
3623.3671875,252997,1,1771.0,1767.0,1749.0,1757.0,1628.0,1627.0,1763.0,1784.0,150.38421630859375,-9.884200096130371,91.77713775634766,Left
3625.3671875,252997,1,1753.0,1753.0,1722.0,1809.0,1791.0,1657.0,1753.0,1813.0,150.38421630859375,-9.884200096130371,91.77713775634766,Left
3627.3671875,252997,1,1763.0,1763.0,1910.0,1736.0,1604.0,2039.0,1767.0,1669.0,150.38421630859375,-9.884200096130371,91.77713775634766,Left
3629.3671875,252997,1,1759.0,1765.0,1875.0,1772.0,1938.0,1828.0,1755.0,1685.0,150.38421630859375,-9.884200096130371,91.77713775634766,Left
3631.3671875,252997,1,1754.0,1765.0,1704.0,1755.0,1703.0,1829.0,1753.0,1725.0,150.38421630859375,-9.884200096130371,91.77713775634766,Left
3624.059814453125,252998,1,1755.0,1763.0,1696.0,1727.0,1643.0,1809.0,1746.0,1696.0,150.19818115234375,-9.891101837158203,91.85234069824219,Left
3626.059814453125,252998,1,1764.0,1763.0,1647.0,1745.0,1641.0,1773.0,1763.0,1711.0,150.19818115234375,-9.891101837158203,91.85234069824219,Left
3628.059814453125,252998,1,1752.0,1761.0,1640.0,1671.0,1845.0,1719.0,1768.0,1745.0,150.19818115234375,-9.891101837158203,91.85234069824219,Left
3630.059814453125,252998,1,1763.0,1763.0,1740.0,1749.0,2167.0,1598.0,1764.0,1823.0,150.19818115234375,-9.891101837158203,91.85234069824219,Left
3632.059814453125,252998,1,1759.0,1764.0,1734.0,1811.0,1839.0,1623.0,1763.0,1887.0,150.19818115234375,-9.891101837158203,91.85234069824219,Left
3633.170166015625,252999,1,1757.0,1759.0,1781.0,1751.0,1453.0,1631.0,1761.0,1820.0,150.19818115234375,-9.891101837158203,91.85234069824219,Left
3635.170166015625,252999,1,1758.0,1763.0,1824.0,1815.0,1751.0,1671.0,1752.0,1827.0,150.19818115234375,-9.891101837158203,91.85234069824219,Left
3637.170166015625,252999,1,1764.0,1765.0,1915.0,1749.0,1832.0,2089.0,1767.0,1688.0,150.19818115234375,-9.891101837158203,91.85234069824219,Left
3639.170166015625,252999,1,1759.0,1765.0,1927.0,1763.0,1671.0,1805.0,1768.0,1651.0,150.19818115234375,-9.891101837158203,91.85234069824219,Left
3641.170166015625,252999,1,1755.0,1763.0,1739.0,1703.0,1705.0,1807.0,1767.0,1677.0,150.19818115234375,-9.891101837158203,91.85234069824219,Left
3649.537109375,253000,1,1767.0,1753.0,1736.0,1784.0,1792.0,1789.0,1753.0,1704.0,150.19818115234375,-9.891101837158203,91.85234069824219,Left
3651.537109375,253000,1,1765.0,1756.0,1709.0,1753.0,2039.0,1769.0,1763.0,1741.0,150.19818115234375,-9.891101837158203,91.85234069824219,Left
3653.537109375,253000,1,1767.0,1764.0,1743.0,1864.0,1673.0,1727.0,1755.0,1743.0,150.19818115234375,-9.891101837158203,91.85234069824219,Left
3655.537109375,253000,1,1754.0,1764.0,1672.0,1723.0,1709.0,1599.0,1762.0,1749.0,150.19818115234375,-9.891101837158203,91.85234069824219,Left
3657.537109375,253000,1,1753.0,1767.0,1701.0,1749.0,1497.0,1629.0,1767.0,1873.0,150.19818115234375,-9.891101837158203,91.85234069824219,Left
3666.6611328125,253001,1,1763.0,1743.0,1801.0,1785.0,2021.0,1653.0,1755.0,1823.0,150.19818115234375,-9.891101837158203,91.85234069824219,Left
3668.6611328125,253001,1,1764.0,1765.0,1831.0,1626.0,1596.0,1657.0,1765.0,1774.0,150.19818115234375,-9.891101837158203,91.85234069824219,Left
3670.6611328125,253001,1,1765.0,1750.0,1891.0,1897.0,1543.0,2137.0,1768.0,1694.0,150.19818115234375,-9.891101837158203,91.85234069824219,Left
3672.6611328125,253001,1,1754.0,1759.0,1806.0,1699.0,2169.0,1811.0,1755.0,1663.0,150.19818115234375,-9.891101837158203,91.85234069824219,Left
3674.6611328125,253001,1,1765.0,1763.0,1753.0,1771.0,1787.0,1821.0,1753.0,1709.0,150.19818115234375,-9.891101837158203,91.85234069824219,Left
3667.619140625,253002,1,1763.0,1751.0,1561.0,1701.0,1835.0,1809.0,1764.0,1721.0,150.19818115234375,-9.891101837158203,91.85234069824219,Left
3669.619140625,253002,1,1755.0,1763.0,1790.0,1749.0,1899.0,1763.0,1753.0,1740.0,150.19818115234375,-9.891101837158203,91.85234069824219,Left
3671.619140625,253002,1,1767.0,1757.0,1735.0,1788.0,1617.0,1723.0,1753.0,1740.0,150.19818115234375,-9.891101837158203,91.85234069824219,Left
3673.619140625,253002,1,1765.0,1765.0,1705.0,1830.0,1691.0,1590.0,1759.0,1755.0,150.19818115234375,-9.891101837158203,91.85234069824219,Left
