Timestamp_ms,Packet_Number,Trial_ID,Ch1,Ch2,Ch3,Ch4,Ch5,Ch6,Ch7,Ch8,Ch9,Ch10,Ch11,Label
2010.43798828125,28859,1,1753.0,1763.0,1749.0,1771.0,1743.0,1751.0,1751.0,1751.0,93.47345733642578,-22.689836502075195,-38.77825927734375,Left
2012.43798828125,28859,1,1765.0,1754.0,1750.0,1753.0,1754.0,1755.0,1763.0,1749.0,93.47345733642578,-22.689836502075195,-38.77825927734375,Left
2014.43798828125,28859,1,1761.0,1749.0,1757.0,1759.0,1752.0,1755.0,1764.0,1741.0,93.47345733642578,-22.689836502075195,-38.77825927734375,Left
2016.43798828125,28859,1,1763.0,1747.0,1750.0,1765.0,1755.0,1750.0,1764.0,1751.0,93.47345733642578,-22.689836502075195,-38.77825927734375,Left
2018.43798828125,28859,1,1764.0,1752.0,1747.0,1757.0,1751.0,1741.0,1766.0,1747.0,93.47345733642578,-22.689836502075195,-38.77825927734375,Left
2012.156982421875,28860,1,1765.0,1766.0,1781.0,1765.0,1755.0,1741.0,1765.0,1750.0,93.47345733642578,-22.689836502075195,-38.77825927734375,Left
2014.156982421875,28860,1,1751.0,1767.0,1735.0,1753.0,1756.0,1752.0,1764.0,1739.0,93.47345733642578,-22.689836502075195,-38.77825927734375,Left
2016.156982421875,28860,1,1753.0,1766.0,1752.0,1753.0,1743.0,1752.0,1765.0,1770.0,93.47345733642578,-22.689836502075195,-38.77825927734375,Left
2018.156982421875,28860,1,1753.0,1765.0,1757.0,1749.0,1759.0,1755.0,1765.0,1746.0,93.47345733642578,-22.689836502075195,-38.77825927734375,Left
2020.156982421875,28860,1,1759.0,1757.0,1758.0,1775.0,1752.0,1751.0,1757.0,1721.0,93.47345733642578,-22.689836502075195,-38.77825927734375,Left
2025.3538818359375,28861,1,1759.0,1757.0,1755.0,1753.0,1753.0,1753.0,1765.0,1739.0,93.47345733642578,-22.689836502075195,-38.77825927734375,Left
2027.3538818359375,28861,1,1763.0,1765.0,1757.0,1739.0,1741.0,1743.0,1766.0,1761.0,93.47345733642578,-22.689836502075195,-38.77825927734375,Left
2029.3538818359375,28861,1,1753.0,1757.0,1767.0,1753.0,1709.0,1753.0,1753.0,1753.0,93.47345733642578,-22.689836502075195,-38.77825927734375,Left
2031.3538818359375,28861,1,1762.0,1762.0,1751.0,1765.0,1751.0,1753.0,1759.0,1759.0,93.47345733642578,-22.689836502075195,-38.77825927734375,Left
2033.3538818359375,28861,1,1765.0,1763.0,1749.0,1751.0,1742.0,1753.0,1764.0,1752.0,93.47345733642578,-22.689836502075195,-38.77825927734375,Left
2047.953857421875,28862,1,1751.0,1758.0,1752.0,1762.0,1753.0,1755.0,1765.0,1749.0,93.47345733642578,-22.689836502075195,-38.77825927734375,Left
2049.953857421875,28862,1,1764.0,1759.0,1771.0,1771.0,1749.0,1753.0,1765.0,1755.0,93.47345733642578,-22.689836502075195,-38.77825927734375,Left
2051.953857421875,28862,1,1759.0,1765.0,1757.0,1765.0,1753.0,1751.0,1753.0,1737.0,93.47345733642578,-22.689836502075195,-38.77825927734375,Left
2053.953857421875,28862,1,1765.0,1747.0,1737.0,1747.0,1743.0,1753.0,1765.0,1737.0,93.47345733642578,-22.689836502075195,-38.77825927734375,Left
2055.953857421875,28862,1,1763.0,1757.0,1756.0,1767.0,1752.0,1743.0,1763.0,1733.0,93.47345733642578,-22.689836502075195,-38.77825927734375,Left
2080.637939453125,28863,1,1763.0,1750.0,1799.0,1763.0,1753.0,1754.0,1763.0,1753.0,93.47345733642578,-22.689836502075195,-38.77825927734375,Left
2082.637939453125,28863,1,1764.0,1759.0,1771.0,1765.0,1751.0,1752.0,1753.0,1743.0,93.57597351074219,-22.411100387573242,-38.723838806152344,Left
2084.637939453125,28863,1,1763.0,1752.0,1751.0,1756.0,1752.0,1747.0,1763.0,1749.0,93.57597351074219,-22.411100387573242,-38.723838806152344,Left
2086.637939453125,28863,1,1763.0,1765.0,1748.0,1753.0,1754.0,1751.0,1765.0,1759.0,93.57597351074219,-22.411100387573242,-38.723838806152344,Left
2088.637939453125,28863,1,1764.0,1757.0,1738.0,1770.0,1755.0,1753.0,1763.0,1756.0,93.57597351074219,-22.411100387573242,-38.723838806152344,Left
2081.608154296875,28864,1,1765.0,1765.0,1763.0,1757.0,1755.0,1740.0,1759.0,1757.0,93.57597351074219,-22.411100387573242,-38.723838806152344,Left
2083.608154296875,28864,1,1763.0,1766.0,1775.0,1761.0,1756.0,1741.0,1763.0,1772.0,93.57597351074219,-22.411100387573242,-38.723838806152344,Left
2085.608154296875,28864,1,1765.0,1766.0,1763.0,1748.0,1747.0,1751.0,1752.0,1751.0,93.57597351074219,-22.411100387573242,-38.723838806152344,Left
2087.608154296875,28864,1,1763.0,1756.0,1749.0,1757.0,1753.0,1756.0,1763.0,1753.0,93.57597351074219,-22.411100387573242,-38.723838806152344,Left
2089.608154296875,28864,1,1752.0,1767.0,1754.0,1753.0,1747.0,1753.0,1751.0,1747.0,93.57597351074219,-22.411100387573242,-38.723838806152344,Left
2082.442138671875,28865,1,1759.0,1765.0,1739.0,1748.0,1753.0,1753.0,1759.0,1741.0,93.57597351074219,-22.411100387573242,-38.723838806152344,Left
2084.442138671875,28865,1,1758.0,1767.0,1782.0,1755.0,1755.0,1751.0,1763.0,1772.0,93.57597351074219,-22.411100387573242,-38.723838806152344,Left
2086.442138671875,28865,1,1751.0,1757.0,1747.0,1763.0,1755.0,1754.0,1759.0,1727.0,93.57597351074219,-22.411100387573242,-38.723838806152344,Left
2088.442138671875,28865,1,1765.0,1754.0,1740.0,1755.0,1751.0,1748.0,1765.0,1755.0,93.57597351074219,-22.411100387573242,-38.723838806152344,Left
2090.442138671875,28865,1,1752.0,1767.0,1759.0,1763.0,1755.0,1751.0,1763.0,1740.0,93.57597351074219,-22.411100387573242,-38.723838806152344,Left
2083.255126953125,28866,1,1759.0,1762.0,1753.0,1748.0,1754.0,1751.0,1763.0,1740.0,93.57597351074219,-22.411100387573242,-38.723838806152344,Left
2085.255126953125,28866,1,1755.0,1765.0,1757.0,1759.0,1751.0,1751.0,1764.0,1742.0,93.57597351074219,-22.411100387573242,-38.723838806152344,Left
2087.255126953125,28866,1,1763.0,1765.0,1755.0,1769.0,1753.0,1752.0,1765.0,1735.0,93.57597351074219,-22.411100387573242,-38.723838806152344,Left
2089.255126953125,28866,1,1764.0,1754.0,1752.0,1757.0,1755.0,1753.0,1763.0,1740.0,93.57597351074219,-22.411100387573242,-38.723838806152344,Left
2091.255126953125,28866,1,1765.0,1759.0,1735.0,1751.0,1755.0,1755.0,1747.0,1718.0,93.57597351074219,-22.411100387573242,-38.723838806152344,Left
2083.7861328125,28867,1,1763.0,1755.0,1762.0,1757.0,1753.0,1741.0,1763.0,1749.0,93.57597351074219,-22.411100387573242,-38.723838806152344,Left
2085.7861328125,28867,1,1752.0,1754.0,1757.0,1739.0,1742.0,1755.0,1758.0,1752.0,93.57597351074219,-22.411100387573242,-38.723838806152344,Left
2087.7861328125,28867,1,1752.0,1763.0,1763.0,1767.0,1753.0,1755.0,1759.0,1763.0,93.57597351074219,-22.411100387573242,-38.723838806152344,Left
2089.7861328125,28867,1,1763.0,1756.0,1754.0,1751.0,1756.0,1749.0,1751.0,1763.0,93.57597351074219,-22.411100387573242,-38.723838806152344,Left
2091.7861328125,28867,1,1757.0,1771.0,1771.0,1761.0,1755.0,1743.0,1753.0,1784.0,93.57597351074219,-22.411100387573242,-38.723838806152344,Left
2089.89111328125,28868,1,1763.0,1773.0,1771.0,1769.0,1752.0,1688.0,1753.0,1755.0,93.57597351074219,-22.411100387573242,-38.723838806152344,Left
2091.89111328125,28868,1,1762.0,1770.0,1769.0,1769.0,1756.0,1753.0,1751.0,1750.0,93.57597351074219,-22.411100387573242,-38.723838806152344,Left
2093.89111328125,28868,1,1765.0,1767.0,1757.0,1757.0,1753.0,1753.0,1765.0,1737.0,93.57597351074219,-22.411100387573242,-38.723838806152344,Left
2095.89111328125,28868,1,1759.0,1759.0,1751.0,1751.0,1753.0,1755.0,1753.0,1733.0,93.57597351074219,-22.411100387573242,-38.723838806152344,Left
2097.89111328125,28868,1,1753.0,1765.0,1764.0,1765.0,1753.0,1755.0,1764.0,1763.0,93.57597351074219,-22.411100387573242,-38.723838806152344,Left
2100.945068359375,28869,1,1751.0,1763.0,1763.0,1751.0,1751.0,1755.0,1761.0,1742.0,93.57597351074219,-22.411100387573242,-38.723838806152344,Left
2102.945068359375,28869,1,1761.0,1759.0,1750.0,1763.0,1751.0,1753.0,1765.0,1739.0,93.57597351074219,-22.411100387573242,-38.723838806152344,Left
2104.945068359375,28869,1,1757.0,1752.0,1723.0,1751.0,1752.0,1755.0,1765.0,1736.0,93.57597351074219,-22.411100387573242,-38.723838806152344,Left
2106.945068359375,28869,1,1765.0,1748.0,1767.0,1779.0,1741.0,1753.0,1755.0,1759.0,93.50524139404297,-22.21638298034668,-38.61389923095703,Left
2108.945068359375,28869,1,1757.0,1757.0,1773.0,1753.0,1753.0,1751.0,1764.0,1755.0,93.50524139404297,-22.21638298034668,-38.61389923095703,Left
2112.714111328125,28870,1,1765.0,1763.0,1747.0,1763.0,1755.0,1752.0,1763.0,1721.0,93.50524139404297,-22.21638298034668,-38.61389923095703,Left
2114.714111328125,28870,1,1756.0,1759.0,1733.0,1738.0,1747.0,1749.0,1753.0,1736.0,93.50524139404297,-22.21638298034668,-38.61389923095703,Left
2116.714111328125,28870,1,1763.0,1765.0,1773.0,1754.0,1754.0,1741.0,1765.0,1743.0,93.50524139404297,-22.21638298034668,-38.61389923095703,Left
2118.714111328125,28870,1,1755.0,1757.0,1779.0,1751.0,1755.0,1751.0,1763.0,1775.0,93.50524139404297,-22.21638298034668,-38.61389923095703,Left
2120.714111328125,28870,1,1763.0,1767.0,1767.0,1759.0,1752.0,1754.0,1753.0,1751.0,93.50524139404297,-22.21638298034668,-38.61389923095703,Left
2122.25,28871,1,1763.0,1753.0,1755.0,1762.0,1747.0,1753.0,1765.0,1714.0,93.50524139404297,-22.21638298034668,-38.61389923095703,Left
2124.25,28871,1,1763.0,1758.0,1747.0,1759.0,1753.0,1755.0,1763.0,1741.0,93.50524139404297,-22.21638298034668,-38.61389923095703,Left
2126.25,28871,1,1763.0,1765.0,1743.0,1759.0,1753.0,1742.0,1759.0,1757.0,93.50524139404297,-22.21638298034668,-38.61389923095703,Left
2128.25,28871,1,1763.0,1763.0,1749.0,1769.0,1747.0,1754.0,1765.0,1762.0,93.50524139404297,-22.21638298034668,-38.61389923095703,Left
2130.25,28871,1,1763.0,1762.0,1753.0,1765.0,1741.0,1755.0,1764.0,1754.0,93.50524139404297,-22.21638298034668,-38.61389923095703,Left
2140.09912109375,28872,1,1761.0,1757.0,1747.0,1762.0,1757.0,1753.0,1752.0,1739.0,93.50524139404297,-22.21638298034668,-38.61389923095703,Left
2142.09912109375,28872,1,1758.0,1765.0,1765.0,1767.0,1753.0,1754.0,1755.0,1739.0,93.50524139404297,-22.21638298034668,-38.61389923095703,Left
2144.09912109375,28872,1,1753.0,1763.0,1753.0,1743.0,1752.0,1756.0,1765.0,1726.0,93.50524139404297,-22.21638298034668,-38.61389923095703,Left
2146.09912109375,28872,1,1763.0,1753.0,1749.0,1751.0,1756.0,1754.0,1767.0,1749.0,93.50524139404297,-22.21638298034668,-38.61389923095703,Left
2148.09912109375,28872,1,1763.0,1763.0,1750.0,1754.0,1754.0,1751.0,1755.0,1753.0,93.50524139404297,-22.21638298034668,-38.61389923095703,Left
2146.389892578125,28873,1,1763.0,1765.0,1753.0,1768.0,1753.0,1755.0,1765.0,1755.0,93.50524139404297,-22.21638298034668,-38.61389923095703,Left
2148.389892578125,28873,1,1753.0,1765.0,1765.0,1767.0,1753.0,1751.0,1763.0,1773.0,93.50524139404297,-22.21638298034668,-38.61389923095703,Left
2150.389892578125,28873,1,1763.0,1771.0,1755.0,1751.0,1751.0,1751.0,1759.0,1767.0,93.50524139404297,-22.21638298034668,-38.61389923095703,Left
2152.389892578125,28873,1,1763.0,1773.0,1751.0,1767.0,1755.0,1752.0,1765.0,1767.0,93.50524139404297,-22.21638298034668,-38.61389923095703,Left
2154.389892578125,28873,1,1761.0,1767.0,1751.0,1739.0,1753.0,1741.0,1765.0,1759.0,93.50524139404297,-22.21638298034668,-38.61389923095703,Left
2156.02294921875,28874,1,1764.0,1763.0,1756.0,1750.0,1752.0,1755.0,1758.0,1737.0,93.50524139404297,-22.21638298034668,-38.61389923095703,Left
2158.02294921875,28874,1,1757.0,1751.0,1755.0,1768.0,1754.0,1755.0,1763.0,1721.0,93.50524139404297,-22.21638298034668,-38.61389923095703,Left
2160.02294921875,28874,1,1763.0,1758.0,1763.0,1767.0,1755.0,1743.0,1764.0,1737.0,93.50524139404297,-22.21638298034668,-38.61389923095703,Left
2162.02294921875,28874,1,1755.0,1764.0,1749.0,1741.0,1752.0,1745.0,1763.0,1750.0,93.50524139404297,-22.21638298034668,-38.61389923095703,Left
2164.02294921875,28874,1,1752.0,1759.0,1767.0,1771.0,1743.0,1757.0,1767.0,1754.0,93.50524139404297,-22.21638298034668,-38.61389923095703,Left
2159.469970703125,28875,1,1765.0,1759.0,1775.0,1758.0,1756.0,1741.0,1758.0,1751.0,93.50524139404297,-22.21638298034668,-38.61389923095703,Left
2161.469970703125,28875,1,1765.0,1757.0,1753.0,1755.0,1755.0,1755.0,1753.0,1734.0,93.50524139404297,-22.21638298034668,-38.61389923095703,Left
2163.469970703125,28875,1,1763.0,1759.0,1725.0,1741.0,1753.0,1752.0,1759.0,1722.0,93.50524139404297,-22.21638298034668,-38.61389923095703,Left
2165.469970703125,28875,1,1765.0,1749.0,1747.0,1756.0,1751.0,1755.0,1753.0,1763.0,93.50524139404297,-22.21638298034668,-38.61389923095703,Left
2167.469970703125,28875,1,1749.0,1759.0,1762.0,1746.0,1753.0,1752.0,1757.0,1757.0,93.50524139404297,-22.21638298034668,-38.61389923095703,Left
2170.971923828125,28876,1,1765.0,1747.0,1755.0,1766.0,1753.0,1742.0,1763.0,1758.0,93.50524139404297,-22.21638298034668,-38.61389923095703,Left
2172.971923828125,28876,1,1757.0,1773.0,1763.0,1758.0,1754.0,1751.0,1765.0,1773.0,93.47193145751953,-22.099273681640625,-38.47271728515625,Left
2174.971923828125,28876,1,1763.0,1769.0,1754.0,1768.0,1757.0,1746.0,1761.0,1755.0,93.47193145751953,-22.099273681640625,-38.47271728515625,Left
2176.971923828125,28876,1,1758.0,1772.0,1769.0,1757.0,1756.0,1742.0,1765.0,1751.0,93.47193145751953,-22.099273681640625,-38.47271728515625,Left
2178.971923828125,28876,1,1759.0,1773.0,1787.0,1752.0,1751.0,1751.0,1765.0,1767.0,93.47193145751953,-22.099273681640625,-38.47271728515625,Left
2179.85009765625,28877,1,1763.0,1771.0,1763.0,1759.0,1759.0,1751.0,1751.0,1739.0,93.47193145751953,-22.099273681640625,-38.47271728515625,Left
2181.85009765625,28877,1,1763.0,1747.0,1741.0,1751.0,1751.0,1756.0,1763.0,1739.0,93.47193145751953,-22.099273681640625,-38.47271728515625,Left
2183.85009765625,28877,1,1753.0,1755.0,1741.0,1748.0,1745.0,1755.0,1763.0,1746.0,93.47193145751953,-22.099273681640625,-38.47271728515625,Left
2185.85009765625,28877,1,1755.0,1751.0,1752.0,1755.0,1752.0,1753.0,1764.0,1756.0,93.47193145751953,-22.099273681640625,-38.47271728515625,Left
2187.85009765625,28877,1,1762.0,1755.0,1786.0,1767.0,1753.0,1753.0,1763.0,1775.0,93.47193145751953,-22.099273681640625,-38.47271728515625,Left
2189.916748046875,28878,1,1757.0,1763.0,1758.0,1771.0,1747.0,1754.0,1747.0,1741.0,93.47193145751953,-22.099273681640625,-38.47271728515625,Left
2191.916748046875,28878,1,1756.0,1757.0,1751.0,1754.0,1745.0,1753.0,1751.0,1721.0,93.47193145751953,-22.099273681640625,-38.47271728515625,Left
2193.916748046875,28878,1,1763.0,1761.0,1708.0,1739.0,1748.0,1753.0,1759.0,1739.0,93.47193145751953,-22.099273681640625,-38.47271728515625,Left
2195.916748046875,28878,1,1765.0,1764.0,1747.0,1753.0,1755.0,1742.0,1766.0,1747.0,93.47193145751953,-22.099273681640625,-38.47271728515625,Left
2197.916748046875,28878,1,1759.0,1765.0,1756.0,1765.0,1752.0,1755.0,1761.0,1736.0,93.47193145751953,-22.099273681640625,-38.47271728515625,Left
2237.8251953125,28879,1,1765.0,1767.0,1753.0,1767.0,1753.0,1753.0,1753.0,1741.0,93.47193145751953,-22.099273681640625,-38.47271728515625,Left
2239.8251953125,28879,1,1752.0,1750.0,1759.0,1767.0,1755.0,1757.0,1755.0,1751.0,93.47193145751953,-22.099273681640625,-38.47271728515625,Left
2241.8251953125,28879,1,1763.0,1763.0,1753.0,1767.0,1753.0,1743.0,1764.0,1764.0,93.47193145751953,-22.099273681640625,-38.47271728515625,Left
2243.8251953125,28879,1,1763.0,1765.0,1752.0,1759.0,1753.0,1751.0,1767.0,1767.0,93.47193145751953,-22.099273681640625,-38.47271728515625,Left
2245.8251953125,28879,1,1763.0,1755.0,1759.0,1755.0,1751.0,1752.0,1765.0,1757.0,93.47193145751953,-22.099273681640625,-38.47271728515625,Left
2238.650146484375,28880,1,1764.0,1748.0,1743.0,1765.0,1742.0,1751.0,1758.0,1752.0,93.47193145751953,-22.099273681640625,-38.47271728515625,Left
2240.650146484375,28880,1,1753.0,1764.0,1758.0,1762.0,1753.0,1753.0,1763.0,1739.0,93.47193145751953,-22.099273681640625,-38.47271728515625,Left
2242.650146484375,28880,1,1763.0,1763.0,1762.0,1757.0,1753.0,1741.0,1753.0,1737.0,93.47193145751953,-22.099273681640625,-38.47271728515625,Left
2244.650146484375,28880,1,1765.0,1767.0,1759.0,1749.0,1753.0,1751.0,1763.0,1739.0,93.47193145751953,-22.099273681640625,-38.47271728515625,Left
2246.650146484375,28880,1,1764.0,1767.0,1747.0,1765.0,1755.0,1758.0,1764.0,1749.0,93.47193145751953,-22.099273681640625,-38.47271728515625,Left
2239.341064453125,28881,1,1753.0,1765.0,1753.0,1759.0,1743.0,1753.0,1765.0,1745.0,93.47193145751953,-22.099273681640625,-38.47271728515625,Left
2241.341064453125,28881,1,1767.0,1763.0,1755.0,1758.0,1756.0,1757.0,1750.0,1765.0,93.47193145751953,-22.099273681640625,-38.47271728515625,Left
2243.341064453125,28881,1,1761.0,1771.0,1789.0,1759.0,1755.0,1755.0,1751.0,1782.0,93.47193145751953,-22.099273681640625,-38.47271728515625,Left
2245.341064453125,28881,1,1758.0,1767.0,1767.0,1751.0,1755.0,1740.0,1764.0,1765.0,93.47193145751953,-22.099273681640625,-38.47271728515625,Left
2247.341064453125,28881,1,1759.0,1756.0,1749.0,1741.0,1743.0,1755.0,1753.0,1743.0,93.47193145751953,-22.099273681640625,-38.47271728515625,Left
2239.944091796875,28882,1,1758.0,1769.0,1725.0,1765.0,1755.0,1753.0,1761.0,1735.0,93.47193145751953,-22.099273681640625,-38.47271728515625,Left
2241.944091796875,28882,1,1759.0,1759.0,1741.0,1751.0,1749.0,1753.0,1766.0,1726.0,93.47193145751953,-22.099273681640625,-38.47271728515625,Left
2243.944091796875,28882,1,1746.0,1744.0,1773.0,1741.0,1742.0,1754.0,1753.0,1747.0,93.47193145751953,-22.099273681640625,-38.47271728515625,Left
2245.944091796875,28882,1,1753.0,1765.0,1751.0,1749.0,1755.0,1753.0,1763.0,1743.0,93.47193145751953,-22.099273681640625,-38.47271728515625,Left
2247.944091796875,28882,1,1759.0,1764.0,1755.0,1756.0,1755.0,1763.0,1765.0,1747.0,93.49347686767578,-21.990768432617188,-38.34899139404297,Left
2246.339111328125,28883,1,1757.0,1763.0,1769.0,1765.0,1752.0,1723.0,1763.0,1756.0,93.49347686767578,-21.990768432617188,-38.34899139404297,Left
2248.339111328125,28883,1,1762.0,1759.0,1769.0,1766.0,1755.0,1756.0,1759.0,1779.0,93.49347686767578,-21.990768432617188,-38.34899139404297,Left
2250.339111328125,28883,1,1764.0,1757.0,1773.0,1763.0,1738.0,1758.0,1764.0,1765.0,93.49347686767578,-21.990768432617188,-38.34899139404297,Left
2252.339111328125,28883,1,1763.0,1759.0,1727.0,1752.0,1755.0,1755.0,1753.0,1741.0,93.49347686767578,-21.990768432617188,-38.34899139404297,Left
2254.339111328125,28883,1,1765.0,1766.0,1721.0,1757.0,1747.0,1751.0,1755.0,1750.0,93.49347686767578,-21.990768432617188,-38.34899139404297,Left
2260.64990234375,28884,1,1757.0,1770.0,1785.0,1764.0,1753.0,1741.0,1753.0,1759.0,93.49347686767578,-21.990768432617188,-38.34899139404297,Left
2262.64990234375,28884,1,1757.0,1767.0,1773.0,1767.0,1742.0,1755.0,1753.0,1741.0,93.49347686767578,-21.990768432617188,-38.34899139404297,Left
2264.64990234375,28884,1,1763.0,1758.0,1749.0,1753.0,1743.0,1753.0,1763.0,1727.0,93.49347686767578,-21.990768432617188,-38.34899139404297,Left
2266.64990234375,28884,1,1763.0,1771.0,1750.0,1759.0,1755.0,1757.0,1751.0,1736.0,93.49347686767578,-21.990768432617188,-38.34899139404297,Left
2268.64990234375,28884,1,1757.0,1758.0,1743.0,1751.0,1742.0,1743.0,1753.0,1742.0,93.49347686767578,-21.990768432617188,-38.34899139404297,Left
2261.89404296875,28885,1,1759.0,1763.0,1724.0,1751.0,1740.0,1753.0,1765.0,1723.0,93.49347686767578,-21.990768432617188,-38.34899139404297,Left
2263.89404296875,28885,1,1753.0,1751.0,1751.0,1757.0,1755.0,1755.0,1765.0,1758.0,93.49347686767578,-21.990768432617188,-38.34899139404297,Left
2265.89404296875,28885,1,1761.0,1751.0,1763.0,1757.0,1757.0,1755.0,1758.0,1759.0,93.49347686767578,-21.990768432617188,-38.34899139404297,Left
2267.89404296875,28885,1,1763.0,1763.0,1804.0,1765.0,1751.0,1755.0,1763.0,1765.0,93.49347686767578,-21.990768432617188,-38.34899139404297,Left
2269.89404296875,28885,1,1762.0,1755.0,1769.0,1759.0,1755.0,1741.0,1765.0,1757.0,93.49347686767578,-21.990768432617188,-38.34899139404297,Left
2271.644775390625,28886,1,1765.0,1763.0,1723.0,1747.0,1725.0,1755.0,1758.0,1745.0,93.49347686767578,-21.990768432617188,-38.34899139404297,Left
2273.644775390625,28886,1,1759.0,1759.0,1747.0,1759.0,1747.0,1753.0,1761.0,1739.0,93.49347686767578,-21.990768432617188,-38.34899139404297,Left
2275.644775390625,28886,1,1763.0,1765.0,1755.0,1764.0,1745.0,1753.0,1765.0,1755.0,93.49347686767578,-21.990768432617188,-38.34899139404297,Left
2277.644775390625,28886,1,1759.0,1757.0,1769.0,1751.0,1755.0,1750.0,1761.0,1754.0,93.49347686767578,-21.990768432617188,-38.34899139404297,Left
2279.644775390625,28886,1,1759.0,1775.0,1772.0,1749.0,1748.0,1753.0,1767.0,1751.0,93.49347686767578,-21.990768432617188,-38.34899139404297,Left
2277.447021484375,28887,1,1765.0,1751.0,1771.0,1757.0,1753.0,1755.0,1764.0,1756.0,93.49347686767578,-21.990768432617188,-38.34899139404297,Left
2279.447021484375,28887,1,1759.0,1757.0,1769.0,1752.0,1747.0,1752.0,1764.0,1751.0,93.49347686767578,-21.990768432617188,-38.34899139404297,Left
2281.447021484375,28887,1,1763.0,1768.0,1749.0,1757.0,1755.0,1754.0,1765.0,1750.0,93.49347686767578,-21.990768432617188,-38.34899139404297,Left
2283.447021484375,28887,1,1765.0,1768.0,1740.0,1758.0,1745.0,1755.0,1765.0,1753.0,93.49347686767578,-21.990768432617188,-38.34899139404297,Left
2285.447021484375,28887,1,1761.0,1769.0,1728.0,1763.0,1755.0,1753.0,1763.0,1758.0,93.49347686767578,-21.990768432617188,-38.34899139404297,Left
2289.751953125,28888,1,1759.0,1759.0,1714.0,1762.0,1741.0,1740.0,1752.0,1717.0,93.49347686767578,-21.990768432617188,-38.34899139404297,Left
2291.751953125,28888,1,1763.0,1753.0,1759.0,1770.0,1755.0,1753.0,1759.0,1753.0,93.49347686767578,-21.990768432617188,-38.34899139404297,Left
2293.751953125,28888,1,1763.0,1742.0,1821.0,1772.0,1756.0,1756.0,1764.0,1773.0,93.49347686767578,-21.990768432617188,-38.34899139404297,Left
2295.751953125,28888,1,1762.0,1756.0,1735.0,1742.0,1753.0,1757.0,1764.0,1695.0,93.49347686767578,-21.990768432617188,-38.34899139404297,Left
2297.751953125,28888,1,1759.0,1756.0,1687.0,1750.0,1753.0,1747.0,1763.0,1747.0,93.49347686767578,-21.990768432617188,-38.34899139404297,Left
2299.884033203125,28889,1,1762.0,1781.0,1791.0,1773.0,1755.0,1753.0,1763.0,1785.0,93.49347686767578,-21.990768432617188,-38.34899139404297,Left
2301.884033203125,28889,1,1759.0,1775.0,1831.0,1781.0,1743.0,1747.0,1763.0,1811.0,93.45452880859375,-21.888317108154297,-38.2313232421875,Left
2303.884033203125,28889,1,1765.0,1758.0,1757.0,1757.0,1752.0,1756.0,1763.0,1749.0,93.45452880859375,-21.888317108154297,-38.2313232421875,Left
2305.884033203125,28889,1,1762.0,1741.0,1701.0,1752.0,1752.0,1749.0,1753.0,1757.0,93.45452880859375,-21.888317108154297,-38.2313232421875,Left
2307.884033203125,28889,1,1763.0,1742.0,1720.0,1751.0,1741.0,1753.0,1761.0,1737.0,93.45452880859375,-21.888317108154297,-38.2313232421875,Left
2311.069091796875,28890,1,1758.0,1809.0,1716.0,1755.0,1765.0,1737.0,1748.0,1703.0,93.45452880859375,-21.888317108154297,-38.2313232421875,Left
2313.069091796875,28890,1,1762.0,1738.0,1757.0,1759.0,1750.0,1752.0,1759.0,1763.0,93.45452880859375,-21.888317108154297,-38.2313232421875,Left
2315.069091796875,28890,1,1765.0,1737.0,1811.0,1737.0,1755.0,1753.0,1763.0,1739.0,93.45452880859375,-21.888317108154297,-38.2313232421875,Left
2317.069091796875,28890,1,1763.0,1769.0,1783.0,1769.0,1752.0,1753.0,1753.0,1752.0,93.45452880859375,-21.888317108154297,-38.2313232421875,Left
2319.069091796875,28890,1,1765.0,1745.0,1757.0,1750.0,1747.0,1755.0,1762.0,1719.0,93.45452880859375,-21.888317108154297,-38.2313232421875,Left
2326.05224609375,28891,1,1752.0,1770.0,1773.0,1757.0,1745.0,1754.0,1767.0,1740.0,93.45452880859375,-21.888317108154297,-38.2313232421875,Left
2328.05224609375,28891,1,1757.0,1757.0,1709.0,1748.0,1755.0,1753.0,1765.0,1742.0,93.45452880859375,-21.888317108154297,-38.2313232421875,Left
2330.05224609375,28891,1,1752.0,1775.0,1750.0,1767.0,1755.0,1757.0,1767.0,1755.0,93.45452880859375,-21.888317108154297,-38.2313232421875,Left
2332.05224609375,28891,1,1762.0,1769.0,1799.0,1779.0,1752.0,1752.0,1752.0,1789.0,93.45452880859375,-21.888317108154297,-38.2313232421875,Left
2334.05224609375,28891,1,1757.0,1801.0,1775.0,1751.0,1753.0,1753.0,1763.0,1735.0,93.45452880859375,-21.888317108154297,-38.2313232421875,Left
2335.322021484375,28892,1,1756.0,1767.0,1743.0,1756.0,1746.0,1741.0,1766.0,1723.0,93.45452880859375,-21.888317108154297,-38.2313232421875,Left
2337.322021484375,28892,1,1762.0,1739.0,1764.0,1764.0,1743.0,1751.0,1762.0,1747.0,93.45452880859375,-21.888317108154297,-38.2313232421875,Left
2339.322021484375,28892,1,1761.0,1727.0,1787.0,1757.0,1756.0,1756.0,1765.0,1752.0,93.45452880859375,-21.888317108154297,-38.2313232421875,Left
2341.322021484375,28892,1,1753.0,1743.0,1784.0,1755.0,1751.0,1756.0,1764.0,1755.0,93.45452880859375,-21.888317108154297,-38.2313232421875,Left
2343.322021484375,28892,1,1761.0,1768.0,1769.0,1771.0,1753.0,1753.0,1767.0,1749.0,93.45452880859375,-21.888317108154297,-38.2313232421875,Left
2349.4130859375,28893,1,1759.0,1774.0,1821.0,1788.0,1749.0,1743.0,1765.0,1771.0,93.45452880859375,-21.888317108154297,-38.2313232421875,Left
2351.4130859375,28893,1,1752.0,1753.0,1659.0,1765.0,1751.0,1746.0,1763.0,1741.0,93.45452880859375,-21.888317108154297,-38.2313232421875,Left
2353.4130859375,28893,1,1765.0,1754.0,1765.0,1755.0,1755.0,1755.0,1751.0,1749.0,93.45452880859375,-21.888317108154297,-38.2313232421875,Left
2355.4130859375,28893,1,1762.0,1754.0,1711.0,1741.0,1753.0,1747.0,1763.0,1737.0,93.45452880859375,-21.888317108154297,-38.2313232421875,Left
2357.4130859375,28893,1,1757.0,1767.0,1799.0,1771.0,1755.0,1755.0,1763.0,1762.0,93.45452880859375,-21.888317108154297,-38.2313232421875,Left
2350.39892578125,28894,1,1751.0,1719.0,1687.0,1743.0,1750.0,1751.0,1764.0,1741.0,93.45452880859375,-21.888317108154297,-38.2313232421875,Left
2352.39892578125,28894,1,1756.0,1771.0,1769.0,1759.0,1751.0,1743.0,1765.0,1754.0,93.45452880859375,-21.888317108154297,-38.2313232421875,Left
2354.39892578125,28894,1,1765.0,1766.0,1742.0,1747.0,1750.0,1741.0,1752.0,1724.0,93.45452880859375,-21.888317108154297,-38.2313232421875,Left
2356.39892578125,28894,1,1753.0,1787.0,1769.0,1758.0,1747.0,1754.0,1763.0,1736.0,93.45452880859375,-21.888317108154297,-38.2313232421875,Left
2358.39892578125,28894,1,1763.0,1765.0,1751.0,1763.0,1753.0,1754.0,1765.0,1743.0,93.45452880859375,-21.888317108154297,-38.2313232421875,Left
2362.318115234375,28895,1,1750.0,1753.0,1757.0,1749.0,1751.0,1755.0,1763.0,1725.0,93.45452880859375,-21.888317108154297,-38.2313232421875,Left
2364.318115234375,28895,1,1758.0,1765.0,1805.0,1771.0,1742.0,1753.0,1763.0,1756.0,93.45452880859375,-21.888317108154297,-38.2313232421875,Left
2366.318115234375,28895,1,1752.0,1763.0,1791.0,1779.0,1743.0,1754.0,1761.0,1749.0,93.45452880859375,-21.888317108154297,-38.2313232421875,Left
2368.318115234375,28895,1,1765.0,1767.0,1723.0,1766.0,1753.0,1753.0,1753.0,1753.0,93.2990493774414,-21.779132843017578,-38.1786994934082,Left
2370.318115234375,28895,1,1765.0,1766.0,1721.0,1757.0,1755.0,1757.0,1753.0,1751.0,93.2990493774414,-21.779132843017578,-38.1786994934082,Left
2372.717041015625,28896,1,1755.0,1764.0,1767.0,1769.0,1753.0,1755.0,1752.0,1757.0,93.2990493774414,-21.779132843017578,-38.1786994934082,Left
2374.717041015625,28896,1,1759.0,1766.0,1725.0,1757.0,1722.0,1752.0,1763.0,1743.0,93.2990493774414,-21.779132843017578,-38.1786994934082,Left
2376.717041015625,28896,1,1753.0,1752.0,1749.0,1757.0,1757.0,1749.0,1766.0,1737.0,93.2990493774414,-21.779132843017578,-38.1786994934082,Left
2378.717041015625,28896,1,1763.0,1753.0,1776.0,1753.0,1756.0,1757.0,1763.0,1751.0,93.2990493774414,-21.779132843017578,-38.1786994934082,Left
2380.717041015625,28896,1,1763.0,1755.0,1783.0,1759.0,1753.0,1753.0,1763.0,1763.0,93.2990493774414,-21.779132843017578,-38.1786994934082,Left
2379.35498046875,28897,1,1762.0,1752.0,1767.0,1767.0,1737.0,1751.0,1763.0,1805.0,93.2990493774414,-21.779132843017578,-38.1786994934082,Left
2381.35498046875,28897,1,1752.0,1764.0,1823.0,1771.0,1753.0,1757.0,1753.0,1785.0,93.2990493774414,-21.779132843017578,-38.1786994934082,Left
2383.35498046875,28897,1,1757.0,1766.0,1763.0,1755.0,1755.0,1756.0,1758.0,1755.0,93.2990493774414,-21.779132843017578,-38.1786994934082,Left
2385.35498046875,28897,1,1757.0,1771.0,1727.0,1767.0,1754.0,1751.0,1751.0,1721.0,93.2990493774414,-21.779132843017578,-38.1786994934082,Left
2387.35498046875,28897,1,1764.0,1740.0,1693.0,1757.0,1756.0,1741.0,1763.0,1733.0,93.2990493774414,-21.779132843017578,-38.1786994934082,Left
2391.94287109375,28898,1,1759.0,1757.0,1656.0,1754.0,1754.0,1740.0,1752.0,1693.0,93.2990493774414,-21.779132843017578,-38.1786994934082,Left
2393.94287109375,28898,1,1764.0,1787.0,1741.0,1764.0,1755.0,1751.0,1753.0,1772.0,93.2990493774414,-21.779132843017578,-38.1786994934082,Left
2395.94287109375,28898,1,1755.0,1823.0,1797.0,1775.0,1751.0,1755.0,1763.0,1771.0,93.2990493774414,-21.779132843017578,-38.1786994934082,Left
2397.94287109375,28898,1,1759.0,1757.0,1741.0,1755.0,1743.0,1751.0,1763.0,1751.0,93.2990493774414,-21.779132843017578,-38.1786994934082,Left
2399.94287109375,28898,1,1763.0,1769.0,1771.0,1741.0,1751.0,1742.0,1759.0,1748.0,93.2990493774414,-21.779132843017578,-38.1786994934082,Left
2402.93505859375,28899,1,1764.0,1749.0,1829.0,1755.0,1742.0,1753.0,1759.0,1769.0,93.2990493774414,-21.779132843017578,-38.1786994934082,Left
2404.93505859375,28899,1,1762.0,1786.0,1787.0,1800.0,1747.0,1752.0,1765.0,1725.0,93.2990493774414,-21.779132843017578,-38.1786994934082,Left
2406.93505859375,28899,1,1764.0,1736.0,1641.0,1757.0,1755.0,1751.0,1759.0,1723.0,93.2990493774414,-21.779132843017578,-38.1786994934082,Left
2408.93505859375,28899,1,1763.0,1766.0,1836.0,1799.0,1746.0,1753.0,1766.0,1803.0,93.2990493774414,-21.779132843017578,-38.1786994934082,Left
2410.93505859375,28899,1,1764.0,1773.0,1785.0,1761.0,1742.0,1749.0,1765.0,1769.0,93.2990493774414,-21.779132843017578,-38.1786994934082,Left
2416.364013671875,28900,1,1752.0,1747.0,1709.0,1747.0,1751.0,1741.0,1765.0,1751.0,93.2990493774414,-21.779132843017578,-38.1786994934082,Left
2418.364013671875,28900,1,1756.0,1745.0,1717.0,1715.0,1753.0,1749.0,1753.0,1705.0,93.2990493774414,-21.779132843017578,-38.1786994934082,Left
2420.364013671875,28900,1,1763.0,1743.0,1737.0,1768.0,1757.0,1747.0,1765.0,1711.0,93.2990493774414,-21.779132843017578,-38.1786994934082,Left
2422.364013671875,28900,1,1765.0,1743.0,1771.0,1765.0,1754.0,1743.0,1766.0,1747.0,93.2990493774414,-21.779132843017578,-38.1786994934082,Left
2424.364013671875,28900,1,1759.0,1753.0,1685.0,1753.0,1755.0,1752.0,1761.0,1711.0,93.2990493774414,-21.779132843017578,-38.1786994934082,Left
2429.176025390625,28901,1,1764.0,1863.0,1788.0,1767.0,1751.0,1752.0,1758.0,1753.0,93.2990493774414,-21.779132843017578,-38.1786994934082,Left
2431.176025390625,28901,1,1765.0,1799.0,1753.0,1767.0,1743.0,1751.0,1750.0,1752.0,93.2990493774414,-21.779132843017578,-38.1786994934082,Left
2433.176025390625,28901,1,1765.0,1741.0,1769.0,1763.0,1753.0,1749.0,1759.0,1786.0,93.2990493774414,-21.779132843017578,-38.1786994934082,Left
2435.176025390625,28901,1,1765.0,1723.0,1753.0,1751.0,1757.0,1753.0,1763.0,1753.0,93.2990493774414,-21.779132843017578,-38.1786994934082,Left
2437.176025390625,28901,1,1761.0,1763.0,1763.0,1763.0,1745.0,1741.0,1759.0,1752.0,93.2990493774414,-21.779132843017578,-38.1786994934082,Left
2430.134033203125,28902,1,1764.0,1753.0,1767.0,1759.0,1742.0,1741.0,1763.0,1737.0,93.2990493774414,-21.779132843017578,-38.1786994934082,Left
2432.134033203125,28902,1,1762.0,1752.0,1771.0,1769.0,1742.0,1750.0,1763.0,1767.0,92.11672973632812,-21.2764892578125,-38.06492614746094,Left
2434.134033203125,28902,1,1753.0,1756.0,1761.0,1749.0,1757.0,1752.0,1767.0,1747.0,92.11672973632812,-21.2764892578125,-38.06492614746094,Left
2436.134033203125,28902,1,1764.0,1769.0,1773.0,1765.0,1753.0,1755.0,1763.0,1734.0,92.11672973632812,-21.2764892578125,-38.06492614746094,Left
2438.134033203125,28902,1,1753.0,1749.0,1709.0,1741.0,1751.0,1752.0,1759.0,1735.0,92.11672973632812,-21.2764892578125,-38.06492614746094,Left
2447.450927734375,28903,1,1763.0,1763.0,1785.0,1756.0,1743.0,1735.0,1756.0,1772.0,92.11672973632812,-21.2764892578125,-38.06492614746094,Left
2449.450927734375,28903,1,1763.0,1755.0,1786.0,1758.0,1756.0,1753.0,1762.0,1757.0,92.11672973632812,-21.2764892578125,-38.06492614746094,Left
2451.450927734375,28903,1,1757.0,1748.0,1721.0,1749.0,1753.0,1753.0,1763.0,1725.0,92.11672973632812,-21.2764892578125,-38.06492614746094,Left
2453.450927734375,28903,1,1763.0,1733.0,1725.0,1750.0,1747.0,1741.0,1763.0,1743.0,92.11672973632812,-21.2764892578125,-38.06492614746094,Left
2455.450927734375,28903,1,1759.0,1763.0,1755.0,1757.0,1753.0,1751.0,1763.0,1757.0,92.11672973632812,-21.2764892578125,-38.06492614746094,Left
2454.479248046875,28904,1,1753.0,1769.0,1727.0,1763.0,1755.0,1755.0,1753.0,1753.0,92.11672973632812,-21.2764892578125,-38.06492614746094,Left
2456.479248046875,28904,1,1754.0,1768.0,1772.0,1773.0,1753.0,1741.0,1753.0,1745.0,92.11672973632812,-21.2764892578125,-38.06492614746094,Left
2458.479248046875,28904,1,1764.0,1765.0,1768.0,1763.0,1755.0,1754.0,1755.0,1751.0,92.11672973632812,-21.2764892578125,-38.06492614746094,Left
2460.479248046875,28904,1,1756.0,1759.0,1741.0,1758.0,1751.0,1742.0,1764.0,1737.0,92.11672973632812,-21.2764892578125,-38.06492614746094,Left
2462.479248046875,28904,1,1761.0,1768.0,1725.0,1741.0,1750.0,1753.0,1765.0,1715.0,92.11672973632812,-21.2764892578125,-38.06492614746094,Left
2465.67919921875,28905,1,1759.0,1768.0,1751.0,1752.0,1755.0,1757.0,1753.0,1759.0,92.11672973632812,-21.2764892578125,-38.06492614746094,Left
2467.67919921875,28905,1,1758.0,1753.0,1832.0,1769.0,1753.0,1754.0,1785.0,1833.0,92.11672973632812,-21.2764892578125,-38.06492614746094,Left
2469.67919921875,28905,1,1753.0,1780.0,1811.0,1775.0,1756.0,1753.0,1763.0,1757.0,92.11672973632812,-21.2764892578125,-38.06492614746094,Left
2471.67919921875,28905,1,1753.0,1775.0,1757.0,1769.0,1754.0,1757.0,1761.0,1771.0,92.11672973632812,-21.2764892578125,-38.06492614746094,Left
2473.67919921875,28905,1,1764.0,1753.0,1741.0,1757.0,1755.0,1755.0,1765.0,1743.0,92.11672973632812,-21.2764892578125,-38.06492614746094,Left
2475.649169921875,28906,1,1759.0,1741.0,1739.0,1753.0,1753.0,1743.0,1752.0,1727.0,92.11672973632812,-21.2764892578125,-38.06492614746094,Left
2477.649169921875,28906,1,1756.0,1757.0,1768.0,1770.0,1751.0,1753.0,1759.0,1739.0,92.11672973632812,-21.2764892578125,-38.06492614746094,Left
2479.649169921875,28906,1,1764.0,1753.0,1779.0,1768.0,1757.0,1751.0,1765.0,1743.0,92.11672973632812,-21.2764892578125,-38.06492614746094,Left
2481.649169921875,28906,1,1773.0,1773.0,1740.0,1767.0,1753.0,1753.0,1765.0,1725.0,92.11672973632812,-21.2764892578125,-38.06492614746094,Left
2483.649169921875,28906,1,1753.0,1783.0,1727.0,1755.0,1755.0,1753.0,1765.0,1745.0,92.11672973632812,-21.2764892578125,-38.06492614746094,Left
2477.296875,28907,1,1762.0,1765.0,1734.0,1757.0,1753.0,1752.0,1759.0,1773.0,92.11672973632812,-21.2764892578125,-38.06492614746094,Left
2479.296875,28907,1,1763.0,1737.0,1765.0,1765.0,1752.0,1757.0,1762.0,1716.0,92.11672973632812,-21.2764892578125,-38.06492614746094,Left
2481.296875,28907,1,1753.0,1742.0,1750.0,1752.0,1743.0,1755.0,1755.0,1750.0,92.11672973632812,-21.2764892578125,-38.06492614746094,Left
2483.296875,28907,1,1765.0,1767.0,1783.0,1751.0,1755.0,1747.0,1765.0,1805.0,92.11672973632812,-21.2764892578125,-38.06492614746094,Left
2485.296875,28907,1,1765.0,1785.0,1774.0,1767.0,1755.0,1753.0,1759.0,1750.0,92.11672973632812,-21.2764892578125,-38.06492614746094,Left
2487.912841796875,28908,1,1763.0,1757.0,1751.0,1767.0,1747.0,1737.0,1759.0,1755.0,92.11672973632812,-21.2764892578125,-38.06492614746094,Left
2489.912841796875,28908,1,1755.0,1811.0,1780.0,1767.0,1755.0,1752.0,1759.0,1775.0,92.11672973632812,-21.2764892578125,-38.06492614746094,Left
2491.912841796875,28908,1,1761.0,1752.0,1737.0,1753.0,1753.0,1753.0,1764.0,1722.0,92.11672973632812,-21.2764892578125,-38.06492614746094,Left
2493.912841796875,28908,1,1761.0,1767.0,1768.0,1771.0,1745.0,1746.0,1765.0,1716.0,90.48033905029297,-20.863758087158203,-37.898170471191406,Left
2495.912841796875,28908,1,1762.0,1755.0,1711.0,1755.0,1755.0,1753.0,1763.0,1749.0,90.48033905029297,-20.863758087158203,-37.898170471191406,Left
2502.677001953125,28909,1,1755.0,1751.0,1749.0,1752.0,1741.0,1745.0,1751.0,1753.0,90.48033905029297,-20.863758087158203,-37.898170471191406,Left
2504.677001953125,28909,1,1752.0,1770.0,1780.0,1767.0,1753.0,1755.0,1763.0,1749.0,90.48033905029297,-20.863758087158203,-37.898170471191406,Left
2506.677001953125,28909,1,1763.0,1767.0,1803.0,1769.0,1751.0,1754.0,1765.0,1765.0,90.48033905029297,-20.863758087158203,-37.898170471191406,Left
2508.677001953125,28909,1,1763.0,1756.0,1749.0,1751.0,1757.0,1739.0,1757.0,1748.0,90.48033905029297,-20.863758087158203,-37.898170471191406,Left
2510.677001953125,28909,1,1764.0,1723.0,1720.0,1752.0,1757.0,1755.0,1757.0,1741.0,90.48033905029297,-20.863758087158203,-37.898170471191406,Left
2508.0029296875,28910,1,1758.0,1766.0,1763.0,1747.0,1753.0,1739.0,1753.0,1733.0,90.48033905029297,-20.863758087158203,-37.898170471191406,Left
2510.0029296875,28910,1,1764.0,1811.0,1765.0,1765.0,1756.0,1741.0,1763.0,1723.0,90.48033905029297,-20.863758087158203,-37.898170471191406,Left
2512.0029296875,28910,1,1763.0,1743.0,1782.0,1787.0,1752.0,1747.0,1758.0,1751.0,90.48033905029297,-20.863758087158203,-37.898170471191406,Left
2514.0029296875,28910,1,1763.0,1737.0,1749.0,1783.0,1756.0,1756.0,1765.0,1757.0,90.48033905029297,-20.863758087158203,-37.898170471191406,Left
2516.0029296875,28910,1,1763.0,1775.0,1727.0,1735.0,1752.0,1756.0,1751.0,1717.0,90.48033905029297,-20.863758087158203,-37.898170471191406,Left
2518.55908203125,28911,1,1753.0,1767.0,1737.0,1748.0,1755.0,1751.0,1765.0,1757.0,90.48033905029297,-20.863758087158203,-37.898170471191406,Left
2520.55908203125,28911,1,1757.0,1751.0,1799.0,1758.0,1751.0,1754.0,1765.0,1783.0,90.48033905029297,-20.863758087158203,-37.898170471191406,Left
2522.55908203125,28911,1,1765.0,1772.0,1787.0,1768.0,1749.0,1756.0,1764.0,1785.0,90.48033905029297,-20.863758087158203,-37.898170471191406,Left
2524.55908203125,28911,1,1763.0,1752.0,1743.0,1751.0,1753.0,1753.0,1762.0,1749.0,90.48033905029297,-20.863758087158203,-37.898170471191406,Left
2526.55908203125,28911,1,1761.0,1780.0,1771.0,1775.0,1752.0,1751.0,1764.0,1742.0,90.48033905029297,-20.863758087158203,-37.898170471191406,Left
2554.8701171875,28912,1,1751.0,1752.0,1747.0,1755.0,1753.0,1742.0,1764.0,1751.0,90.48033905029297,-20.863758087158203,-37.898170471191406,Left
2556.8701171875,28912,1,1764.0,1773.0,1783.0,1749.0,1755.0,1751.0,1759.0,1750.0,90.48033905029297,-20.863758087158203,-37.898170471191406,Left
2558.8701171875,28912,1,1762.0,1740.0,1751.0,1759.0,1755.0,1756.0,1765.0,1755.0,90.48033905029297,-20.863758087158203,-37.898170471191406,Left
2560.8701171875,28912,1,1765.0,1739.0,1740.0,1737.0,1752.0,1753.0,1754.0,1746.0,90.48033905029297,-20.863758087158203,-37.898170471191406,Left
2562.8701171875,28912,1,1757.0,1759.0,1758.0,1752.0,1751.0,1756.0,1759.0,1733.0,90.48033905029297,-20.863758087158203,-37.898170471191406,Left
2555.908203125,28913,1,1762.0,1775.0,1755.0,1753.0,1754.0,1756.0,1762.0,1703.0,90.48033905029297,-20.863758087158203,-37.898170471191406,Left
2557.908203125,28913,1,1753.0,1785.0,1747.0,1753.0,1754.0,1742.0,1763.0,1749.0,90.48033905029297,-20.863758087158203,-37.898170471191406,Left
2559.908203125,28913,1,1757.0,1765.0,1780.0,1771.0,1755.0,1755.0,1766.0,1769.0,90.48033905029297,-20.863758087158203,-37.898170471191406,Left
2561.908203125,28913,1,1752.0,1751.0,1754.0,1769.0,1755.0,1745.0,1753.0,1763.0,90.48033905029297,-20.863758087158203,-37.898170471191406,Left
2563.908203125,28913,1,1763.0,1757.0,1749.0,1771.0,1753.0,1750.0,1763.0,1757.0,90.48033905029297,-20.863758087158203,-37.898170471191406,Left
2557.281982421875,28914,1,1763.0,1743.0,1751.0,1751.0,1752.0,1751.0,1755.0,1727.0,90.48033905029297,-20.863758087158203,-37.898170471191406,Left
2559.281982421875,28914,1,1757.0,1781.0,1727.0,1764.0,1755.0,1753.0,1752.0,1737.0,90.48033905029297,-20.863758087158203,-37.898170471191406,Left
2561.281982421875,28914,1,1765.0,1751.0,1752.0,1751.0,1745.0,1748.0,1763.0,1773.0,90.48033905029297,-20.863758087158203,-37.898170471191406,Left
2563.281982421875,28914,1,1753.0,1759.0,1787.0,1756.0,1751.0,1754.0,1762.0,1753.0,90.48033905029297,-20.863758087158203,-37.898170471191406,Left
2565.281982421875,28914,1,1753.0,1755.0,1724.0,1753.0,1747.0,1755.0,1751.0,1717.0,90.48033905029297,-20.863758087158203,-37.898170471191406,Left
2558.72802734375,28915,1,1757.0,1757.0,1771.0,1771.0,1743.0,1757.0,1765.0,1754.0,90.48033905029297,-20.863758087158203,-37.898170471191406,Left
2560.72802734375,28915,1,1759.0,1753.0,1798.0,1749.0,1751.0,1753.0,1759.0,1790.0,90.9326400756836,-20.748645782470703,-37.85628890991211,Left
2562.72802734375,28915,1,1757.0,1788.0,1753.0,1753.0,1754.0,1757.0,1767.0,1765.0,90.9326400756836,-20.748645782470703,-37.85628890991211,Left
2564.72802734375,28915,1,1762.0,1755.0,1769.0,1769.0,1752.0,1737.0,1751.0,1743.0,90.9326400756836,-20.748645782470703,-37.85628890991211,Left
2566.72802734375,28915,1,1766.0,1756.0,1752.0,1736.0,1745.0,1753.0,1757.0,1775.0,90.9326400756836,-20.748645782470703,-37.85628890991211,Left
2569.336181640625,28916,1,1765.0,1775.0,1749.0,1751.0,1745.0,1754.0,1763.0,1727.0,90.9326400756836,-20.748645782470703,-37.85628890991211,Left
2571.336181640625,28916,1,1753.0,1747.0,1736.0,1745.0,1741.0,1753.0,1755.0,1726.0,90.9326400756836,-20.748645782470703,-37.85628890991211,Left
2573.336181640625,28916,1,1753.0,1763.0,1759.0,1768.0,1755.0,1748.0,1763.0,1751.0,90.9326400756836,-20.748645782470703,-37.85628890991211,Left
2575.336181640625,28916,1,1757.0,1763.0,1801.0,1771.0,1757.0,1741.0,1763.0,1797.0,90.9326400756836,-20.748645782470703,-37.85628890991211,Left
2577.336181640625,28916,1,1764.0,1759.0,1753.0,1746.0,1752.0,1755.0,1753.0,1718.0,90.9326400756836,-20.748645782470703,-37.85628890991211,Left
2585.2490234375,28917,1,1751.0,1783.0,1758.0,1763.0,1751.0,1755.0,1763.0,1741.0,90.9326400756836,-20.748645782470703,-37.85628890991211,Left
2587.2490234375,28917,1,1753.0,1757.0,1733.0,1765.0,1753.0,1751.0,1763.0,1740.0,90.9326400756836,-20.748645782470703,-37.85628890991211,Left
2589.2490234375,28917,1,1757.0,1748.0,1747.0,1753.0,1747.0,1752.0,1764.0,1787.0,90.9326400756836,-20.748645782470703,-37.85628890991211,Left
2591.2490234375,28917,1,1763.0,1771.0,1754.0,1769.0,1754.0,1755.0,1763.0,1757.0,90.9326400756836,-20.748645782470703,-37.85628890991211,Left
2593.2490234375,28917,1,1765.0,1763.0,1747.0,1767.0,1753.0,1752.0,1765.0,1705.0,90.9326400756836,-20.748645782470703,-37.85628890991211,Left
2592.75390625,28918,1,1763.0,1753.0,1752.0,1751.0,1753.0,1753.0,1763.0,1755.0,90.9326400756836,-20.748645782470703,-37.85628890991211,Left
2594.75390625,28918,1,1759.0,1767.0,1733.0,1763.0,1751.0,1753.0,1763.0,1762.0,90.9326400756836,-20.748645782470703,-37.85628890991211,Left
2596.75390625,28918,1,1756.0,1765.0,1807.0,1749.0,1754.0,1748.0,1759.0,1782.0,90.9326400756836,-20.748645782470703,-37.85628890991211,Left
2598.75390625,28918,1,1763.0,1769.0,1787.0,1757.0,1755.0,1753.0,1765.0,1739.0,90.9326400756836,-20.748645782470703,-37.85628890991211,Left
2600.75390625,28918,1,1763.0,1791.0,1721.0,1773.0,1747.0,1754.0,1767.0,1741.0,90.9326400756836,-20.748645782470703,-37.85628890991211,Left
2610.526123046875,28919,1,1753.0,1763.0,1723.0,1752.0,1753.0,1754.0,1757.0,1737.0,90.9326400756836,-20.748645782470703,-37.85628890991211,Left
2612.526123046875,28919,1,1755.0,1756.0,1783.0,1757.0,1757.0,1756.0,1763.0,1767.0,90.9326400756836,-20.748645782470703,-37.85628890991211,Left
2614.526123046875,28919,1,1765.0,1758.0,1791.0,1772.0,1748.0,1753.0,1765.0,1766.0,90.9326400756836,-20.748645782470703,-37.85628890991211,Left
2616.526123046875,28919,1,1764.0,1747.0,1753.0,1758.0,1752.0,1754.0,1761.0,1743.0,90.9326400756836,-20.748645782470703,-37.85628890991211,Left
2618.526123046875,28919,1,1752.0,1757.0,1746.0,1765.0,1751.0,1751.0,1759.0,1725.0,90.9326400756836,-20.748645782470703,-37.85628890991211,Left
2629.013916015625,28920,1,1765.0,1788.0,1755.0,1769.0,1743.0,1752.0,1759.0,1740.0,90.9326400756836,-20.748645782470703,-37.85628890991211,Left
2631.013916015625,28920,1,1764.0,1737.0,1737.0,1751.0,1753.0,1752.0,1759.0,1727.0,90.9326400756836,-20.748645782470703,-37.85628890991211,Left
2633.013916015625,28920,1,1763.0,1753.0,1749.0,1757.0,1755.0,1755.0,1767.0,1737.0,90.9326400756836,-20.748645782470703,-37.85628890991211,Left
2635.013916015625,28920,1,1765.0,1775.0,1759.0,1753.0,1755.0,1743.0,1753.0,1750.0,90.9326400756836,-20.748645782470703,-37.85628890991211,Left
2637.013916015625,28920,1,1751.0,1769.0,1727.0,1761.0,1753.0,1755.0,1765.0,1734.0,90.9326400756836,-20.748645782470703,-37.85628890991211,Left
2629.9541015625,28921,1,1763.0,1769.0,1765.0,1748.0,1753.0,1753.0,1762.0,1749.0,90.9326400756836,-20.748645782470703,-37.85628890991211,Left
2631.9541015625,28921,1,1753.0,1767.0,1789.0,1763.0,1753.0,1754.0,1751.0,1785.0,90.9326400756836,-20.748645782470703,-37.85628890991211,Left
2633.9541015625,28921,1,1761.0,1737.0,1755.0,1752.0,1755.0,1757.0,1765.0,1739.0,90.9326400756836,-20.748645782470703,-37.85628890991211,Left
2635.9541015625,28921,1,1763.0,1767.0,1759.0,1763.0,1743.0,1757.0,1764.0,1750.0,90.56413269042969,-20.648202896118164,-37.80247497558594,Left
2637.9541015625,28921,1,1764.0,1751.0,1764.0,1767.0,1743.0,1753.0,1761.0,1762.0,90.56413269042969,-20.648202896118164,-37.80247497558594,Left
2630.457275390625,28922,1,1765.0,1761.0,1751.0,1766.0,1753.0,1753.0,1765.0,1739.0,90.56413269042969,-20.648202896118164,-37.80247497558594,Left
2632.457275390625,28922,1,1754.0,1757.0,1741.0,1725.0,1755.0,1749.0,1763.0,1750.0,90.56413269042969,-20.648202896118164,-37.80247497558594,Left
2634.457275390625,28922,1,1765.0,1771.0,1749.0,1755.0,1755.0,1754.0,1766.0,1733.0,90.56413269042969,-20.648202896118164,-37.80247497558594,Left
2636.457275390625,28922,1,1765.0,1733.0,1784.0,1757.0,1755.0,1755.0,1763.0,1747.0,90.56413269042969,-20.648202896118164,-37.80247497558594,Left
2638.457275390625,28922,1,1761.0,1772.0,1752.0,1755.0,1751.0,1741.0,1753.0,1739.0,90.56413269042969,-20.648202896118164,-37.80247497558594,Left
2645.1142578125,28923,1,1764.0,1771.0,1765.0,1759.0,1753.0,1753.0,1763.0,1759.0,90.56413269042969,-20.648202896118164,-37.80247497558594,Left
2647.1142578125,28923,1,1753.0,1751.0,1791.0,1769.0,1755.0,1752.0,1766.0,1767.0,90.56413269042969,-20.648202896118164,-37.80247497558594,Left
2649.1142578125,28923,1,1762.0,1827.0,1725.0,1764.0,1755.0,1757.0,1758.0,1759.0,90.56413269042969,-20.648202896118164,-37.80247497558594,Left
2651.1142578125,28923,1,1767.0,1783.0,1727.0,1747.0,1752.0,1751.0,1759.0,1747.0,90.56413269042969,-20.648202896118164,-37.80247497558594,Left
2653.1142578125,28923,1,1753.0,1747.0,1757.0,1769.0,1754.0,1751.0,1763.0,1753.0,90.56413269042969,-20.648202896118164,-37.80247497558594,Left
2655.74609375,28924,1,1763.0,1781.0,1779.0,1765.0,1751.0,1749.0,1766.0,1757.0,90.56413269042969,-20.648202896118164,-37.80247497558594,Left
2657.74609375,28924,1,1753.0,1736.0,1745.0,1743.0,1753.0,1755.0,1764.0,1741.0,90.56413269042969,-20.648202896118164,-37.80247497558594,Left
2659.74609375,28924,1,1765.0,1773.0,1733.0,1758.0,1755.0,1753.0,1761.0,1684.0,90.56413269042969,-20.648202896118164,-37.80247497558594,Left
2661.74609375,28924,1,1736.0,1773.0,1739.0,1757.0,1752.0,1756.0,1763.0,1746.0,90.56413269042969,-20.648202896118164,-37.80247497558594,Left
2663.74609375,28924,1,1756.0,1749.0,1755.0,1756.0,1754.0,1751.0,1763.0,1723.0,90.56413269042969,-20.648202896118164,-37.80247497558594,Left
2670.801025390625,28925,1,1763.0,1747.0,1773.0,1743.0,1743.0,1755.0,1752.0,1756.0,90.56413269042969,-20.648202896118164,-37.80247497558594,Left
2672.801025390625,28925,1,1765.0,1753.0,1751.0,1767.0,1753.0,1751.0,1763.0,1763.0,90.56413269042969,-20.648202896118164,-37.80247497558594,Left
2674.801025390625,28925,1,1757.0,1765.0,1755.0,1741.0,1751.0,1755.0,1765.0,1767.0,90.56413269042969,-20.648202896118164,-37.80247497558594,Left
2676.801025390625,28925,1,1757.0,1767.0,1765.0,1755.0,1745.0,1749.0,1753.0,1771.0,90.56413269042969,-20.648202896118164,-37.80247497558594,Left
2678.801025390625,28925,1,1753.0,1757.0,1753.0,1757.0,1746.0,1753.0,1763.0,1765.0,90.56413269042969,-20.648202896118164,-37.80247497558594,Left
2682.77490234375,28926,1,1757.0,1797.0,1755.0,1759.0,1742.0,1753.0,1759.0,1752.0,90.56413269042969,-20.648202896118164,-37.80247497558594,Left
2684.77490234375,28926,1,1756.0,1763.0,1765.0,1761.0,1745.0,1743.0,1762.0,1755.0,90.56413269042969,-20.648202896118164,-37.80247497558594,Left
2686.77490234375,28926,1,1765.0,1758.0,1789.0,1779.0,1753.0,1752.0,1765.0,1753.0,90.56413269042969,-20.648202896118164,-37.80247497558594,Left
2688.77490234375,28926,1,1758.0,1761.0,1797.0,1783.0,1745.0,1755.0,1759.0,1738.0,90.56413269042969,-20.648202896118164,-37.80247497558594,Left
2690.77490234375,28926,1,1764.0,1783.0,1706.0,1766.0,1756.0,1753.0,1765.0,1717.0,90.56413269042969,-20.648202896118164,-37.80247497558594,Left
2683.39697265625,28927,1,1752.0,1753.0,1739.0,1765.0,1753.0,1745.0,1765.0,1743.0,90.56413269042969,-20.648202896118164,-37.80247497558594,Left
2685.39697265625,28927,1,1752.0,1767.0,1789.0,1761.0,1756.0,1755.0,1762.0,1763.0,90.56413269042969,-20.648202896118164,-37.80247497558594,Left
2687.39697265625,28927,1,1747.0,1763.0,1757.0,1764.0,1759.0,1755.0,1765.0,1771.0,90.56413269042969,-20.648202896118164,-37.80247497558594,Left
2689.39697265625,28927,1,1763.0,1757.0,1748.0,1765.0,1752.0,1753.0,1763.0,1765.0,90.56413269042969,-20.648202896118164,-37.80247497558594,Left
2691.39697265625,28927,1,1763.0,1758.0,1756.0,1755.0,1751.0,1749.0,1763.0,1765.0,90.56413269042969,-20.648202896118164,-37.80247497558594,Left
2689.9453125,28928,1,1763.0,1748.0,1759.0,1774.0,1755.0,1741.0,1765.0,1740.0,90.20820617675781,-20.545360565185547,-37.76435470581055,Left
2691.9453125,28928,1,1765.0,1757.0,1799.0,1737.0,1752.0,1751.0,1755.0,1743.0,90.20820617675781,-20.545360565185547,-37.76435470581055,Left
2693.9453125,28928,1,1763.0,1752.0,1762.0,1752.0,1757.0,1751.0,1763.0,1745.0,90.20820617675781,-20.545360565185547,-37.76435470581055,Left
2695.9453125,28928,1,1765.0,1749.0,1673.0,1743.0,1751.0,1757.0,1759.0,1738.0,90.20820617675781,-20.545360565185547,-37.76435470581055,Left
2697.9453125,28928,1,1755.0,1755.0,1737.0,1749.0,1755.0,1753.0,1763.0,1755.0,90.20820617675781,-20.545360565185547,-37.76435470581055,Left
2703.2041015625,28929,1,1758.0,1747.0,1765.0,1765.0,1754.0,1755.0,1759.0,1715.0,90.20820617675781,-20.545360565185547,-37.76435470581055,Left
2705.2041015625,28929,1,1754.0,1763.0,1746.0,1763.0,1756.0,1746.0,1765.0,1733.0,90.20820617675781,-20.545360565185547,-37.76435470581055,Left
2707.2041015625,28929,1,1755.0,1771.0,1752.0,1763.0,1752.0,1754.0,1764.0,1767.0,90.20820617675781,-20.545360565185547,-37.76435470581055,Left
2709.2041015625,28929,1,1765.0,1747.0,1757.0,1749.0,1754.0,1741.0,1765.0,1769.0,90.20820617675781,-20.545360565185547,-37.76435470581055,Left
2711.2041015625,28929,1,1761.0,1769.0,1753.0,1762.0,1754.0,1741.0,1763.0,1771.0,90.20820617675781,-20.545360565185547,-37.76435470581055,Left
2709.1240234375,28930,1,1764.0,1753.0,1767.0,1750.0,1753.0,1745.0,1752.0,1756.0,90.20820617675781,-20.545360565185547,-37.76435470581055,Left
2711.1240234375,28930,1,1765.0,1747.0,1762.0,1755.0,1755.0,1751.0,1751.0,1755.0,90.20820617675781,-20.545360565185547,-37.76435470581055,Left
2713.1240234375,28930,1,1753.0,1771.0,1759.0,1753.0,1753.0,1735.0,1751.0,1719.0,90.20820617675781,-20.545360565185547,-37.76435470581055,Left
2715.1240234375,28930,1,1754.0,1785.0,1726.0,1755.0,1753.0,1752.0,1761.0,1701.0,90.20820617675781,-20.545360565185547,-37.76435470581055,Left
2717.1240234375,28930,1,1759.0,1775.0,1755.0,1768.0,1752.0,1743.0,1766.0,1736.0,90.20820617675781,-20.545360565185547,-37.76435470581055,Left
2720.98388671875,28931,1,1763.0,1766.0,1788.0,1749.0,1755.0,1749.0,1745.0,1747.0,90.20820617675781,-20.545360565185547,-37.76435470581055,Left
2722.98388671875,28931,1,1764.0,1779.0,1768.0,1759.0,1745.0,1743.0,1765.0,1762.0,90.20820617675781,-20.545360565185547,-37.76435470581055,Left
2724.98388671875,28931,1,1762.0,1753.0,1735.0,1755.0,1755.0,1753.0,1767.0,1739.0,90.20820617675781,-20.545360565185547,-37.76435470581055,Left
2726.98388671875,28931,1,1763.0,1748.0,1741.0,1753.0,1752.0,1754.0,1759.0,1771.0,90.20820617675781,-20.545360565185547,-37.76435470581055,Left
2728.98388671875,28931,1,1767.0,1771.0,1798.0,1767.0,1757.0,1747.0,1765.0,1785.0,90.20820617675781,-20.545360565185547,-37.76435470581055,Left
2733.134033203125,28932,1,1762.0,1751.0,1757.0,1773.0,1755.0,1741.0,1765.0,1743.0,90.20820617675781,-20.545360565185547,-37.76435470581055,Left
2735.134033203125,28932,1,1753.0,1725.0,1762.0,1743.0,1755.0,1742.0,1752.0,1725.0,90.20820617675781,-20.545360565185547,-37.76435470581055,Left
2737.134033203125,28932,1,1753.0,1755.0,1756.0,1749.0,1759.0,1752.0,1765.0,1718.0,90.20820617675781,-20.545360565185547,-37.76435470581055,Left
2739.134033203125,28932,1,1763.0,1725.0,1738.0,1753.0,1746.0,1745.0,1754.0,1747.0,90.20820617675781,-20.545360565185547,-37.76435470581055,Left
2741.134033203125,28932,1,1763.0,1771.0,1764.0,1771.0,1751.0,1752.0,1764.0,1741.0,90.20820617675781,-20.545360565185547,-37.76435470581055,Left
2743.451904296875,28933,1,1764.0,1747.0,1751.0,1739.0,1753.0,1753.0,1752.0,1740.0,90.20820617675781,-20.545360565185547,-37.76435470581055,Left
2745.451904296875,28933,1,1763.0,1781.0,1767.0,1773.0,1753.0,1751.0,1766.0,1755.0,90.20820617675781,-20.545360565185547,-37.76435470581055,Left
2747.451904296875,28933,1,1765.0,1785.0,1749.0,1751.0,1755.0,1755.0,1753.0,1748.0,90.20820617675781,-20.545360565185547,-37.76435470581055,Left
2749.451904296875,28933,1,1752.0,1763.0,1735.0,1771.0,1743.0,1755.0,1753.0,1762.0,90.20820617675781,-20.545360565185547,-37.76435470581055,Left
2751.451904296875,28933,1,1757.0,1751.0,1751.0,1767.0,1756.0,1755.0,1765.0,1755.0,90.20820617675781,-20.545360565185547,-37.76435470581055,Left
2761.36181640625,28934,1,1763.0,1757.0,1741.0,1747.0,1747.0,1753.0,1751.0,1719.0,90.20820617675781,-20.545360565185547,-37.76435470581055,Left
2763.36181640625,28934,1,1763.0,1759.0,1781.0,1764.0,1756.0,1753.0,1755.0,1759.0,90.20820617675781,-20.545360565185547,-37.76435470581055,Left
2765.36181640625,28934,1,1763.0,1764.0,1767.0,1762.0,1757.0,1749.0,1752.0,1749.0,90.20820617675781,-20.545360565185547,-37.76435470581055,Left
2767.36181640625,28934,1,1759.0,1763.0,1756.0,1751.0,1753.0,1755.0,1763.0,1711.0,90.25802612304688,-20.367412567138672,-37.669403076171875,Left
2769.36181640625,28934,1,1766.0,1757.0,1733.0,1753.0,1752.0,1742.0,1765.0,1739.0,90.25802612304688,-20.367412567138672,-37.669403076171875,Left
2770.56494140625,28935,1,1764.0,1757.0,1752.0,1751.0,1753.0,1756.0,1755.0,1736.0,90.25802612304688,-20.367412567138672,-37.669403076171875,Left
2772.56494140625,28935,1,1758.0,1787.0,1758.0,1749.0,1757.0,1743.0,1765.0,1751.0,90.25802612304688,-20.367412567138672,-37.669403076171875,Left
2774.56494140625,28935,1,1763.0,1754.0,1754.0,1766.0,1740.0,1754.0,1758.0,1738.0,90.25802612304688,-20.367412567138672,-37.669403076171875,Left
2776.56494140625,28935,1,1763.0,1757.0,1752.0,1762.0,1753.0,1755.0,1759.0,1752.0,90.25802612304688,-20.367412567138672,-37.669403076171875,Left
2778.56494140625,28935,1,1741.0,1775.0,1775.0,1769.0,1751.0,1739.0,1766.0,1777.0,90.25802612304688,-20.367412567138672,-37.669403076171875,Left
2771.327880859375,28936,1,1763.0,1751.0,1797.0,1759.0,1741.0,1751.0,1761.0,1763.0,90.25802612304688,-20.367412567138672,-37.669403076171875,Left
2773.327880859375,28936,1,1752.0,1751.0,1703.0,1727.0,1751.0,1755.0,1759.0,1750.0,90.25802612304688,-20.367412567138672,-37.669403076171875,Left
2775.327880859375,28936,1,1753.0,1783.0,1786.0,1759.0,1752.0,1753.0,1756.0,1747.0,90.25802612304688,-20.367412567138672,-37.669403076171875,Left
2777.327880859375,28936,1,1763.0,1767.0,1737.0,1764.0,1753.0,1741.0,1765.0,1739.0,90.25802612304688,-20.367412567138672,-37.669403076171875,Left
2779.327880859375,28936,1,1753.0,1762.0,1752.0,1747.0,1753.0,1753.0,1751.0,1753.0,90.25802612304688,-20.367412567138672,-37.669403076171875,Left
2782.876953125,28937,1,1757.0,1763.0,1727.0,1753.0,1755.0,1754.0,1765.0,1737.0,90.25802612304688,-20.367412567138672,-37.669403076171875,Left
2784.876953125,28937,1,1752.0,1753.0,1739.0,1757.0,1755.0,1749.0,1763.0,1724.0,90.25802612304688,-20.367412567138672,-37.669403076171875,Left
2786.876953125,28937,1,1759.0,1765.0,1734.0,1765.0,1764.0,1753.0,1759.0,1781.0,90.25802612304688,-20.367412567138672,-37.669403076171875,Left
2788.876953125,28937,1,1759.0,1768.0,1779.0,1771.0,1755.0,1753.0,1759.0,1779.0,90.25802612304688,-20.367412567138672,-37.669403076171875,Left
2790.876953125,28937,1,1765.0,1765.0,1752.0,1758.0,1755.0,1753.0,1763.0,1735.0,90.25802612304688,-20.367412567138672,-37.669403076171875,Left
2803.23876953125,28938,1,1757.0,1776.0,1790.0,1767.0,1752.0,1742.0,1767.0,1782.0,90.25802612304688,-20.367412567138672,-37.669403076171875,Left
2805.23876953125,28938,1,1763.0,1767.0,1737.0,1755.0,1756.0,1749.0,1759.0,1738.0,90.25802612304688,-20.367412567138672,-37.669403076171875,Left
2807.23876953125,28938,1,1759.0,1748.0,1773.0,1765.0,1753.0,1753.0,1765.0,1749.0,90.25802612304688,-20.367412567138672,-37.669403076171875,Left
2809.23876953125,28938,1,1763.0,1755.0,1755.0,1749.0,1752.0,1755.0,1763.0,1723.0,90.25802612304688,-20.367412567138672,-37.669403076171875,Left
2811.23876953125,28938,1,1765.0,1790.0,1728.0,1763.0,1754.0,1756.0,1757.0,1721.0,90.25802612304688,-20.367412567138672,-37.669403076171875,Left
2810.27001953125,28939,1,1763.0,1743.0,1707.0,1751.0,1741.0,1755.0,1757.0,1741.0,90.25802612304688,-20.367412567138672,-37.669403076171875,Left
2812.27001953125,28939,1,1763.0,1733.0,1771.0,1770.0,1751.0,1755.0,1759.0,1788.0,90.25802612304688,-20.367412567138672,-37.669403076171875,Left
2814.27001953125,28939,1,1755.0,1782.0,1812.0,1773.0,1745.0,1757.0,1751.0,1771.0,90.25802612304688,-20.367412567138672,-37.669403076171875,Left
2816.27001953125,28939,1,1763.0,1813.0,1716.0,1767.0,1741.0,1747.0,1755.0,1753.0,90.25802612304688,-20.367412567138672,-37.669403076171875,Left
2818.27001953125,28939,1,1753.0,1757.0,1734.0,1741.0,1752.0,1751.0,1753.0,1752.0,90.25802612304688,-20.367412567138672,-37.669403076171875,Left
2810.9609375,28940,1,1758.0,1749.0,1770.0,1765.0,1755.0,1737.0,1754.0,1735.0,90.25802612304688,-20.367412567138672,-37.669403076171875,Left
2812.9609375,28940,1,1763.0,1739.0,1747.0,1752.0,1757.0,1753.0,1765.0,1721.0,90.25802612304688,-20.367412567138672,-37.669403076171875,Left
2814.9609375,28940,1,1765.0,1749.0,1765.0,1739.0,1757.0,1741.0,1764.0,1723.0,90.25802612304688,-20.367412567138672,-37.669403076171875,Left
2816.9609375,28940,1,1758.0,1768.0,1720.0,1749.0,1751.0,1755.0,1763.0,1723.0,90.25802612304688,-20.367412567138672,-37.669403076171875,Left
2818.9609375,28940,1,1763.0,1791.0,1762.0,1774.0,1749.0,1741.0,1759.0,1745.0,90.25802612304688,-20.367412567138672,-37.669403076171875,Left
2818.93212890625,28941,1,1765.0,1743.0,1755.0,1743.0,1753.0,1751.0,1763.0,1763.0,89.99899291992188,-20.19843292236328,-37.52421188354492,Left
2820.93212890625,28941,1,1765.0,1752.0,1767.0,1763.0,1753.0,1755.0,1763.0,1754.0,89.99899291992188,-20.19843292236328,-37.52421188354492,Left
2822.93212890625,28941,1,1753.0,1799.0,1771.0,1779.0,1755.0,1757.0,1753.0,1765.0,89.99899291992188,-20.19843292236328,-37.52421188354492,Left
2824.93212890625,28941,1,1765.0,1769.0,1747.0,1753.0,1756.0,1751.0,1754.0,1759.0,89.99899291992188,-20.19843292236328,-37.52421188354492,Left
2826.93212890625,28941,1,1765.0,1739.0,1735.0,1759.0,1747.0,1751.0,1763.0,1756.0,89.99899291992188,-20.19843292236328,-37.52421188354492,Left
2841.979248046875,28942,1,1752.0,1751.0,1772.0,1769.0,1755.0,1741.0,1757.0,1754.0,89.99899291992188,-20.19843292236328,-37.52421188354492,Left
2843.979248046875,28942,1,1764.0,1757.0,1775.0,1767.0,1756.0,1751.0,1763.0,1759.0,89.99899291992188,-20.19843292236328,-37.52421188354492,Left
2845.979248046875,28942,1,1765.0,1753.0,1755.0,1770.0,1719.0,1755.0,1767.0,1745.0,89.99899291992188,-20.19843292236328,-37.52421188354492,Left
2847.979248046875,28942,1,1751.0,1769.0,1741.0,1755.0,1743.0,1755.0,1765.0,1709.0,89.99899291992188,-20.19843292236328,-37.52421188354492,Left
2849.979248046875,28942,1,1764.0,1765.0,1753.0,1757.0,1759.0,1753.0,1765.0,1755.0,89.99899291992188,-20.19843292236328,-37.52421188354492,Left
2843.01123046875,28943,1,1759.0,1779.0,1786.0,1767.0,1755.0,1756.0,1764.0,1769.0,89.99899291992188,-20.19843292236328,-37.52421188354492,Left
2845.01123046875,28943,1,1765.0,1749.0,1765.0,1766.0,1753.0,1747.0,1763.0,1753.0,89.99899291992188,-20.19843292236328,-37.52421188354492,Left
2847.01123046875,28943,1,1759.0,1739.0,1748.0,1753.0,1745.0,1751.0,1767.0,1749.0,89.99899291992188,-20.19843292236328,-37.52421188354492,Left
2849.01123046875,28943,1,1763.0,1754.0,1745.0,1735.0,1755.0,1753.0,1764.0,1741.0,89.99899291992188,-20.19843292236328,-37.52421188354492,Left
2851.01123046875,28943,1,1758.0,1749.0,1742.0,1757.0,1750.0,1755.0,1767.0,1733.0,89.99899291992188,-20.19843292236328,-37.52421188354492,Left
2856.553955078125,28944,1,1765.0,1741.0,1743.0,1764.0,1753.0,1751.0,1766.0,1718.0,89.99899291992188,-20.19843292236328,-37.52421188354492,Left
2858.553955078125,28944,1,1763.0,1757.0,1719.0,1742.0,1742.0,1751.0,1759.0,1738.0,89.99899291992188,-20.19843292236328,-37.52421188354492,Left
2860.553955078125,28944,1,1752.0,1768.0,1761.0,1747.0,1755.0,1743.0,1759.0,1754.0,89.99899291992188,-20.19843292236328,-37.52421188354492,Left
2862.553955078125,28944,1,1765.0,1775.0,1752.0,1759.0,1755.0,1753.0,1751.0,1770.0,89.99899291992188,-20.19843292236328,-37.52421188354492,Left
2864.553955078125,28944,1,1765.0,1772.0,1763.0,1759.0,1755.0,1755.0,1753.0,1774.0,89.99899291992188,-20.19843292236328,-37.52421188354492,Left
2866.884033203125,28945,1,1759.0,1789.0,1844.0,1802.0,1753.0,1753.0,1764.0,1792.0,89.99899291992188,-20.19843292236328,-37.52421188354492,Left
2868.884033203125,28945,1,1763.0,1755.0,1757.0,1767.0,1752.0,1758.0,1765.0,1763.0,89.99899291992188,-20.19843292236328,-37.52421188354492,Left
2870.884033203125,28945,1,1757.0,1766.0,1721.0,1757.0,1753.0,1757.0,1753.0,1740.0,89.99899291992188,-20.19843292236328,-37.52421188354492,Left
2872.884033203125,28945,1,1757.0,1753.0,1693.0,1763.0,1753.0,1752.0,1761.0,1740.0,89.99899291992188,-20.19843292236328,-37.52421188354492,Left
2874.884033203125,28945,1,1763.0,1765.0,1781.0,1752.0,1745.0,1754.0,1753.0,1766.0,89.99899291992188,-20.19843292236328,-37.52421188354492,Left
2873.221923828125,28946,1,1763.0,1758.0,1845.0,1749.0,1755.0,1751.0,1759.0,1761.0,89.99899291992188,-20.19843292236328,-37.52421188354492,Left
2875.221923828125,28946,1,1753.0,1783.0,1736.0,1799.0,1755.0,1752.0,1764.0,1709.0,89.99899291992188,-20.19843292236328,-37.52421188354492,Left
2877.221923828125,28946,1,1757.0,1726.0,1723.0,1706.0,1752.0,1749.0,1765.0,1737.0,89.99899291992188,-20.19843292236328,-37.52421188354492,Left
2879.221923828125,28946,1,1751.0,1747.0,1742.0,1753.0,1752.0,1756.0,1763.0,1745.0,89.99899291992188,-20.19843292236328,-37.52421188354492,Left
2881.221923828125,28946,1,1763.0,1753.0,1751.0,1764.0,1755.0,1752.0,1753.0,1737.0,89.99899291992188,-20.19843292236328,-37.52421188354492,Left
2880.620849609375,28947,1,1759.0,1779.0,1753.0,1756.0,1751.0,1757.0,1763.0,1743.0,89.99899291992188,-20.19843292236328,-37.52421188354492,Left
2882.620849609375,28947,1,1763.0,1785.0,1765.0,1772.0,1747.0,1741.0,1758.0,1755.0,89.99899291992188,-20.19843292236328,-37.52421188354492,Left
2884.620849609375,28947,1,1757.0,1751.0,1751.0,1740.0,1742.0,1752.0,1763.0,1743.0,89.99899291992188,-20.19843292236328,-37.52421188354492,Left
2886.620849609375,28947,1,1762.0,1769.0,1749.0,1768.0,1751.0,1751.0,1759.0,1751.0,90.14421081542969,-20.07195472717285,-37.47830581665039,Left
2888.620849609375,28947,1,1759.0,1749.0,1747.0,1751.0,1755.0,1756.0,1765.0,1748.0,90.14421081542969,-20.07195472717285,-37.47830581665039,Left
2889.33203125,28948,1,1759.0,1752.0,1764.0,1752.0,1753.0,1751.0,1749.0,1753.0,90.14421081542969,-20.07195472717285,-37.47830581665039,Left
2891.33203125,28948,1,1752.0,1767.0,1785.0,1773.0,1753.0,1753.0,1765.0,1766.0,90.14421081542969,-20.07195472717285,-37.47830581665039,Left
2893.33203125,28948,1,1759.0,1765.0,1743.0,1756.0,1756.0,1751.0,1759.0,1755.0,90.14421081542969,-20.07195472717285,-37.47830581665039,Left
2895.33203125,28948,1,1763.0,1758.0,1762.0,1771.0,1750.0,1753.0,1763.0,1756.0,90.14421081542969,-20.07195472717285,-37.47830581665039,Left
2897.33203125,28948,1,1763.0,1785.0,1784.0,1771.0,1751.0,1752.0,1764.0,1761.0,90.14421081542969,-20.07195472717285,-37.47830581665039,Left
2899.06103515625,28949,1,1759.0,1769.0,1737.0,1755.0,1751.0,1753.0,1754.0,1735.0,90.14421081542969,-20.07195472717285,-37.47830581665039,Left
2901.06103515625,28949,1,1753.0,1763.0,1739.0,1747.0,1752.0,1753.0,1765.0,1738.0,90.14421081542969,-20.07195472717285,-37.47830581665039,Left
2903.06103515625,28949,1,1763.0,1747.0,1739.0,1757.0,1751.0,1757.0,1759.0,1751.0,90.14421081542969,-20.07195472717285,-37.47830581665039,Left
2905.06103515625,28949,1,1765.0,1764.0,1797.0,1757.0,1755.0,1753.0,1752.0,1784.0,90.14421081542969,-20.07195472717285,-37.47830581665039,Left
2907.06103515625,28949,1,1757.0,1749.0,1745.0,1745.0,1757.0,1749.0,1764.0,1751.0,90.14421081542969,-20.07195472717285,-37.47830581665039,Left
2911.09619140625,28950,1,1765.0,1759.0,1775.0,1740.0,1756.0,1751.0,1767.0,1747.0,90.14421081542969,-20.07195472717285,-37.47830581665039,Left
2913.09619140625,28950,1,1748.0,1765.0,1748.0,1772.0,1751.0,1741.0,1765.0,1743.0,90.14421081542969,-20.07195472717285,-37.47830581665039,Left
2915.09619140625,28950,1,1763.0,1763.0,1725.0,1765.0,1753.0,1752.0,1762.0,1726.0,90.14421081542969,-20.07195472717285,-37.47830581665039,Left
2917.09619140625,28950,1,1761.0,1771.0,1773.0,1756.0,1754.0,1743.0,1765.0,1779.0,90.14421081542969,-20.07195472717285,-37.47830581665039,Left
2919.09619140625,28950,1,1763.0,1756.0,1788.0,1753.0,1751.0,1755.0,1763.0,1755.0,90.14421081542969,-20.07195472717285,-37.47830581665039,Left
2919.737060546875,28951,1,1762.0,1758.0,1740.0,1758.0,1755.0,1751.0,1764.0,1721.0,90.14421081542969,-20.07195472717285,-37.47830581665039,Left
2921.737060546875,28951,1,1751.0,1761.0,1736.0,1747.0,1747.0,1753.0,1755.0,1745.0,90.14421081542969,-20.07195472717285,-37.47830581665039,Left
2923.737060546875,28951,1,1765.0,1747.0,1775.0,1749.0,1755.0,1751.0,1753.0,1756.0,90.14421081542969,-20.07195472717285,-37.47830581665039,Left
2925.737060546875,28951,1,1759.0,1716.0,1759.0,1754.0,1745.0,1755.0,1757.0,1751.0,90.14421081542969,-20.07195472717285,-37.47830581665039,Left
2927.737060546875,28951,1,1765.0,1763.0,1755.0,1761.0,1757.0,1755.0,1763.0,1751.0,90.14421081542969,-20.07195472717285,-37.47830581665039,Left
2929.85791015625,28952,1,1759.0,1820.0,1779.0,1755.0,1753.0,1740.0,1757.0,1751.0,90.14421081542969,-20.07195472717285,-37.47830581665039,Left
2931.85791015625,28952,1,1763.0,1749.0,1755.0,1755.0,1753.0,1755.0,1764.0,1749.0,90.14421081542969,-20.07195472717285,-37.47830581665039,Left
2933.85791015625,28952,1,1763.0,1775.0,1753.0,1744.0,1743.0,1749.0,1765.0,1768.0,90.14421081542969,-20.07195472717285,-37.47830581665039,Left
2935.85791015625,28952,1,1759.0,1788.0,1741.0,1776.0,1755.0,1755.0,1764.0,1750.0,90.14421081542969,-20.07195472717285,-37.47830581665039,Left
2937.85791015625,28952,1,1761.0,1775.0,1775.0,1768.0,1753.0,1753.0,1759.0,1754.0,90.14421081542969,-20.07195472717285,-37.47830581665039,Left
2963.58203125,28953,1,1763.0,1741.0,1787.0,1751.0,1755.0,1753.0,1765.0,1761.0,90.14421081542969,-20.07195472717285,-37.47830581665039,Left
2965.58203125,28953,1,1763.0,1723.0,1711.0,1742.0,1755.0,1742.0,1754.0,1717.0,90.14421081542969,-20.07195472717285,-37.47830581665039,Left
2967.58203125,28953,1,1752.0,1779.0,1742.0,1775.0,1753.0,1752.0,1757.0,1756.0,90.14421081542969,-20.07195472717285,-37.47830581665039,Left
2969.58203125,28953,1,1763.0,1739.0,1751.0,1749.0,1754.0,1753.0,1761.0,1758.0,90.14421081542969,-20.07195472717285,-37.47830581665039,Left
2971.58203125,28953,1,1761.0,1739.0,1759.0,1738.0,1751.0,1753.0,1767.0,1769.0,90.14421081542969,-20.07195472717285,-37.47830581665039,Left
2965.040283203125,28954,1,1762.0,1769.0,1753.0,1756.0,1756.0,1750.0,1765.0,1735.0,90.14421081542969,-20.07195472717285,-37.47830581665039,Left
2967.040283203125,28954,1,1759.0,1763.0,1757.0,1764.0,1756.0,1752.0,1765.0,1736.0,90.24115753173828,-19.973167419433594,-37.52693176269531,Left
2969.040283203125,28954,1,1753.0,1766.0,1751.0,1745.0,1745.0,1755.0,1765.0,1747.0,90.24115753173828,-19.973167419433594,-37.52693176269531,Left
2971.040283203125,28954,1,1753.0,1754.0,1754.0,1751.0,1755.0,1741.0,1763.0,1741.0,90.24115753173828,-19.973167419433594,-37.52693176269531,Left
2973.040283203125,28954,1,1765.0,1739.0,1747.0,1767.0,1748.0,1743.0,1765.0,1748.0,90.24115753173828,-19.973167419433594,-37.52693176269531,Left
2971.18212890625,28955,1,1763.0,1766.0,1767.0,1755.0,1755.0,1757.0,1765.0,1749.0,90.24115753173828,-19.973167419433594,-37.52693176269531,Left
2973.18212890625,28955,1,1743.0,1767.0,1753.0,1765.0,1753.0,1747.0,1759.0,1753.0,90.24115753173828,-19.973167419433594,-37.52693176269531,Left
2975.18212890625,28955,1,1759.0,1753.0,1743.0,1755.0,1754.0,1747.0,1766.0,1753.0,90.24115753173828,-19.973167419433594,-37.52693176269531,Left
2977.18212890625,28955,1,1758.0,1789.0,1751.0,1755.0,1747.0,1753.0,1759.0,1765.0,90.24115753173828,-19.973167419433594,-37.52693176269531,Left
2979.18212890625,28955,1,1767.0,1781.0,1765.0,1767.0,1754.0,1755.0,1763.0,1773.0,90.24115753173828,-19.973167419433594,-37.52693176269531,Left
2976.67724609375,28956,1,1759.0,1750.0,1749.0,1766.0,1755.0,1740.0,1752.0,1746.0,90.24115753173828,-19.973167419433594,-37.52693176269531,Left
2978.67724609375,28956,1,1756.0,1759.0,1785.0,1772.0,1753.0,1750.0,1752.0,1781.0,90.24115753173828,-19.973167419433594,-37.52693176269531,Left
2980.67724609375,28956,1,1763.0,1769.0,1768.0,1763.0,1751.0,1741.0,1765.0,1748.0,90.24115753173828,-19.973167419433594,-37.52693176269531,Left
2982.67724609375,28956,1,1758.0,1770.0,1774.0,1765.0,1752.0,1752.0,1765.0,1747.0,90.24115753173828,-19.973167419433594,-37.52693176269531,Left
2984.67724609375,28956,1,1758.0,1766.0,1737.0,1751.0,1747.0,1753.0,1757.0,1734.0,90.24115753173828,-19.973167419433594,-37.52693176269531,Left
2983.90283203125,28957,1,1763.0,1757.0,1747.0,1750.0,1749.0,1741.0,1766.0,1723.0,90.24115753173828,-19.973167419433594,-37.52693176269531,Left
2985.90283203125,28957,1,1763.0,1737.0,1769.0,1768.0,1753.0,1753.0,1765.0,1751.0,90.24115753173828,-19.973167419433594,-37.52693176269531,Left
2987.90283203125,28957,1,1763.0,1751.0,1723.0,1741.0,1742.0,1757.0,1765.0,1753.0,90.24115753173828,-19.973167419433594,-37.52693176269531,Left
2989.90283203125,28957,1,1757.0,1775.0,1755.0,1750.0,1756.0,1757.0,1761.0,1781.0,90.24115753173828,-19.973167419433594,-37.52693176269531,Left
2991.90283203125,28957,1,1759.0,1803.0,1773.0,1787.0,1747.0,1751.0,1755.0,1773.0,90.24115753173828,-19.973167419433594,-37.52693176269531,Left
2990.297119140625,28958,1,1757.0,1759.0,1753.0,1756.0,1753.0,1739.0,1751.0,1749.0,90.24115753173828,-19.973167419433594,-37.52693176269531,Left
2992.297119140625,28958,1,1751.0,1767.0,1707.0,1743.0,1754.0,1743.0,1763.0,1706.0,90.24115753173828,-19.973167419433594,-37.52693176269531,Left
2994.297119140625,28958,1,1765.0,1761.0,1707.0,1736.0,1751.0,1751.0,1763.0,1757.0,90.24115753173828,-19.973167419433594,-37.52693176269531,Left
2996.297119140625,28958,1,1763.0,1775.0,1801.0,1758.0,1752.0,1753.0,1758.0,1783.0,90.24115753173828,-19.973167419433594,-37.52693176269531,Left
2998.297119140625,28958,1,1761.0,1751.0,1864.0,1753.0,1752.0,1752.0,1752.0,1769.0,90.24115753173828,-19.973167419433594,-37.52693176269531,Left
2998.34619140625,28959,1,1753.0,1747.0,1741.0,1765.0,1746.0,1759.0,1761.0,1708.0,90.24115753173828,-19.973167419433594,-37.52693176269531,Left
3000.34619140625,28959,1,1760.0,1779.0,1727.0,1741.0,1754.0,1753.0,1765.0,1736.0,90.24115753173828,-19.973167419433594,-37.52693176269531,Left
3002.34619140625,28959,1,1763.0,1757.0,1735.0,1757.0,1752.0,1753.0,1763.0,1725.0,90.24115753173828,-19.973167419433594,-37.52693176269531,Left
3004.34619140625,28959,1,1757.0,1774.0,1775.0,1775.0,1752.0,1753.0,1761.0,1781.0,90.24115753173828,-19.973167419433594,-37.52693176269531,Left
3006.34619140625,28959,1,1751.0,1747.0,1757.0,1773.0,1757.0,1749.0,1764.0,1739.0,90.24115753173828,-19.973167419433594,-37.52693176269531,Left
3008.509033203125,28960,1,1753.0,1769.0,1740.0,1736.0,1755.0,1751.0,1765.0,1743.0,90.24115753173828,-19.973167419433594,-37.52693176269531,Left
3010.509033203125,28960,1,1759.0,1779.0,1707.0,1751.0,1754.0,1751.0,1763.0,1741.0,90.24115753173828,-19.973167419433594,-37.52693176269531,Left
3012.509033203125,28960,1,1765.0,1755.0,1764.0,1751.0,1754.0,1737.0,1763.0,1743.0,90.38729858398438,-19.790508270263672,-37.6248664855957,Left
3014.509033203125,28960,1,1753.0,1755.0,1764.0,1753.0,1742.0,1751.0,1767.0,1759.0,90.38729858398438,-19.790508270263672,-37.6248664855957,Left
3016.509033203125,28960,1,1763.0,1770.0,1775.0,1763.0,1755.0,1755.0,1764.0,1745.0,90.38729858398438,-19.790508270263672,-37.6248664855957,Left
3021.760009765625,28961,1,1753.0,1761.0,1749.0,1763.0,1755.0,1745.0,1767.0,1748.0,90.38729858398438,-19.790508270263672,-37.6248664855957,Left
3023.760009765625,28961,1,1763.0,1751.0,1745.0,1767.0,1755.0,1753.0,1765.0,1749.0,90.38729858398438,-19.790508270263672,-37.6248664855957,Left
3025.760009765625,28961,1,1761.0,1755.0,1739.0,1741.0,1753.0,1753.0,1759.0,1753.0,90.38729858398438,-19.790508270263672,-37.6248664855957,Left
3027.760009765625,28961,1,1763.0,1763.0,1747.0,1749.0,1749.0,1755.0,1765.0,1751.0,90.38729858398438,-19.790508270263672,-37.6248664855957,Left
3029.760009765625,28961,1,1753.0,1753.0,1769.0,1757.0,1751.0,1753.0,1765.0,1767.0,90.38729858398438,-19.790508270263672,-37.6248664855957,Left
3035.181884765625,28962,1,1765.0,1749.0,1775.0,1754.0,1755.0,1753.0,1763.0,1735.0,90.38729858398438,-19.790508270263672,-37.6248664855957,Left
3037.181884765625,28962,1,1763.0,1757.0,1751.0,1755.0,1755.0,1755.0,1752.0,1734.0,90.38729858398438,-19.790508270263672,-37.6248664855957,Left
3039.181884765625,28962,1,1755.0,1770.0,1725.0,1743.0,1755.0,1753.0,1765.0,1743.0,90.38729858398438,-19.790508270263672,-37.6248664855957,Left
3041.181884765625,28962,1,1759.0,1772.0,1749.0,1758.0,1753.0,1753.0,1759.0,1748.0,90.38729858398438,-19.790508270263672,-37.6248664855957,Left
3043.181884765625,28962,1,1759.0,1765.0,1769.0,1779.0,1753.0,1754.0,1763.0,1768.0,90.38729858398438,-19.790508270263672,-37.6248664855957,Left
3041.23291015625,28963,1,1763.0,1768.0,1822.0,1775.0,1747.0,1753.0,1752.0,1775.0,90.38729858398438,-19.790508270263672,-37.6248664855957,Left
3043.23291015625,28963,1,1765.0,1783.0,1755.0,1771.0,1741.0,1754.0,1753.0,1749.0,90.38729858398438,-19.790508270263672,-37.6248664855957,Left
3045.23291015625,28963,1,1765.0,1752.0,1741.0,1758.0,1743.0,1755.0,1765.0,1735.0,90.38729858398438,-19.790508270263672,-37.6248664855957,Left
3047.23291015625,28963,1,1759.0,1751.0,1723.0,1737.0,1752.0,1741.0,1765.0,1727.0,90.38729858398438,-19.790508270263672,-37.6248664855957,Left
3049.23291015625,28963,1,1766.0,1759.0,1735.0,1754.0,1755.0,1753.0,1753.0,1741.0,90.38729858398438,-19.790508270263672,-37.6248664855957,Left
3052.010009765625,28964,1,1762.0,1751.0,1771.0,1767.0,1754.0,1755.0,1766.0,1753.0,90.38729858398438,-19.790508270263672,-37.6248664855957,Left
3054.010009765625,28964,1,1761.0,1765.0,1783.0,1773.0,1755.0,1749.0,1752.0,1769.0,90.38729858398438,-19.790508270263672,-37.6248664855957,Left
3056.010009765625,28964,1,1751.0,1769.0,1769.0,1751.0,1753.0,1743.0,1758.0,1757.0,90.38729858398438,-19.790508270263672,-37.6248664855957,Left
3058.010009765625,28964,1,1759.0,1759.0,1749.0,1763.0,1753.0,1755.0,1758.0,1737.0,90.38729858398438,-19.790508270263672,-37.6248664855957,Left
3060.010009765625,28964,1,1759.0,1767.0,1755.0,1755.0,1750.0,1753.0,1765.0,1768.0,90.38729858398438,-19.790508270263672,-37.6248664855957,Left
3066.149169921875,28965,1,1754.0,1736.0,1749.0,1763.0,1752.0,1745.0,1758.0,1758.0,90.38729858398438,-19.790508270263672,-37.6248664855957,Left
3068.149169921875,28965,1,1753.0,1766.0,1816.0,1768.0,1757.0,1754.0,1765.0,1756.0,90.38729858398438,-19.790508270263672,-37.6248664855957,Left
3070.149169921875,28965,1,1756.0,1799.0,1755.0,1766.0,1738.0,1752.0,1763.0,1753.0,90.38729858398438,-19.790508270263672,-37.6248664855957,Left
3072.149169921875,28965,1,1753.0,1752.0,1736.0,1753.0,1755.0,1746.0,1767.0,1750.0,90.38729858398438,-19.790508270263672,-37.6248664855957,Left
3074.149169921875,28965,1,1759.0,1743.0,1724.0,1751.0,1751.0,1750.0,1757.0,1741.0,90.38729858398438,-19.790508270263672,-37.6248664855957,Left
3080.022216796875,28966,1,1753.0,1799.0,1773.0,1765.0,1743.0,1741.0,1762.0,1765.0,90.38729858398438,-19.790508270263672,-37.6248664855957,Left
3082.022216796875,28966,1,1765.0,1747.0,1751.0,1767.0,1757.0,1753.0,1765.0,1741.0,90.38729858398438,-19.790508270263672,-37.6248664855957,Left
3084.022216796875,28966,1,1765.0,1751.0,1756.0,1747.0,1752.0,1751.0,1752.0,1756.0,90.38729858398438,-19.790508270263672,-37.6248664855957,Left
3086.022216796875,28966,1,1763.0,1797.0,1763.0,1768.0,1741.0,1754.0,1763.0,1748.0,90.38729858398438,-19.790508270263672,-37.6248664855957,Left
3088.022216796875,28966,1,1757.0,1753.0,1753.0,1759.0,1742.0,1753.0,1765.0,1746.0,90.38729858398438,-19.790508270263672,-37.6248664855957,Left
3080.72705078125,28967,1,1757.0,1766.0,1775.0,1769.0,1753.0,1752.0,1763.0,1756.0,90.46237182617188,-19.537765502929688,-37.638240814208984,Left
3082.72705078125,28967,1,1762.0,1741.0,1775.0,1735.0,1745.0,1757.0,1763.0,1753.0,90.46237182617188,-19.537765502929688,-37.638240814208984,Left
3084.72705078125,28967,1,1763.0,1768.0,1706.0,1762.0,1755.0,1743.0,1767.0,1739.0,90.46237182617188,-19.537765502929688,-37.638240814208984,Left
3086.72705078125,28967,1,1759.0,1757.0,1757.0,1762.0,1755.0,1749.0,1759.0,1765.0,90.46237182617188,-19.537765502929688,-37.638240814208984,Left
3088.72705078125,28967,1,1753.0,1752.0,1767.0,1771.0,1753.0,1751.0,1765.0,1771.0,90.46237182617188,-19.537765502929688,-37.638240814208984,Left
3090.837890625,28968,1,1765.0,1720.0,1765.0,1766.0,1752.0,1753.0,1752.0,1764.0,90.46237182617188,-19.537765502929688,-37.638240814208984,Left
3092.837890625,28968,1,1759.0,1765.0,1725.0,1754.0,1754.0,1741.0,1761.0,1725.0,90.46237182617188,-19.537765502929688,-37.638240814208984,Left
3094.837890625,28968,1,1765.0,1756.0,1740.0,1767.0,1755.0,1752.0,1761.0,1739.0,90.46237182617188,-19.537765502929688,-37.638240814208984,Left
3096.837890625,28968,1,1752.0,1753.0,1743.0,1757.0,1751.0,1755.0,1763.0,1748.0,90.46237182617188,-19.537765502929688,-37.638240814208984,Left
3098.837890625,28968,1,1763.0,1764.0,1791.0,1751.0,1755.0,1753.0,1763.0,1783.0,90.46237182617188,-19.537765502929688,-37.638240814208984,Left
3097.02392578125,28969,1,1768.0,1749.0,1767.0,1765.0,1753.0,1743.0,1753.0,1763.0,90.46237182617188,-19.537765502929688,-37.638240814208984,Left
3099.02392578125,28969,1,1753.0,1755.0,1752.0,1755.0,1752.0,1744.0,1766.0,1747.0,90.46237182617188,-19.537765502929688,-37.638240814208984,Left
3101.02392578125,28969,1,1763.0,1763.0,1735.0,1763.0,1753.0,1747.0,1759.0,1741.0,90.46237182617188,-19.537765502929688,-37.638240814208984,Left
3103.02392578125,28969,1,1755.0,1766.0,1764.0,1757.0,1755.0,1753.0,1762.0,1742.0,90.46237182617188,-19.537765502929688,-37.638240814208984,Left
3105.02392578125,28969,1,1755.0,1762.0,1755.0,1765.0,1753.0,1751.0,1757.0,1749.0,90.46237182617188,-19.537765502929688,-37.638240814208984,Left
3109.350830078125,28970,1,1763.0,1757.0,1715.0,1749.0,1755.0,1750.0,1759.0,1727.0,90.46237182617188,-19.537765502929688,-37.638240814208984,Left
3111.350830078125,28970,1,1763.0,1767.0,1781.0,1769.0,1741.0,1751.0,1763.0,1761.0,90.46237182617188,-19.537765502929688,-37.638240814208984,Left
3113.350830078125,28970,1,1752.0,1765.0,1764.0,1770.0,1752.0,1752.0,1765.0,1755.0,90.46237182617188,-19.537765502929688,-37.638240814208984,Left
3115.350830078125,28970,1,1751.0,1768.0,1742.0,1755.0,1752.0,1757.0,1763.0,1725.0,90.46237182617188,-19.537765502929688,-37.638240814208984,Left
3117.350830078125,28970,1,1763.0,1785.0,1778.0,1755.0,1743.0,1755.0,1764.0,1765.0,90.46237182617188,-19.537765502929688,-37.638240814208984,Left
3118.27099609375,28971,1,1765.0,1761.0,1755.0,1763.0,1754.0,1758.0,1752.0,1765.0,90.46237182617188,-19.537765502929688,-37.638240814208984,Left
3120.27099609375,28971,1,1759.0,1771.0,1784.0,1751.0,1742.0,1753.0,1763.0,1757.0,90.46237182617188,-19.537765502929688,-37.638240814208984,Left
3122.27099609375,28971,1,1762.0,1764.0,1747.0,1747.0,1755.0,1755.0,1753.0,1750.0,90.46237182617188,-19.537765502929688,-37.638240814208984,Left
3124.27099609375,28971,1,1763.0,1743.0,1725.0,1751.0,1752.0,1757.0,1767.0,1726.0,90.46237182617188,-19.537765502929688,-37.638240814208984,Left
3126.27099609375,28971,1,1756.0,1771.0,1721.0,1755.0,1742.0,1754.0,1765.0,1751.0,90.46237182617188,-19.537765502929688,-37.638240814208984,Left
3132.43603515625,28972,1,1763.0,1764.0,1788.0,1763.0,1740.0,1755.0,1767.0,1775.0,90.46237182617188,-19.537765502929688,-37.638240814208984,Left
3134.43603515625,28972,1,1767.0,1757.0,1821.0,1767.0,1755.0,1751.0,1759.0,1773.0,90.46237182617188,-19.537765502929688,-37.638240814208984,Left
3136.43603515625,28972,1,1765.0,1763.0,1780.0,1759.0,1749.0,1737.0,1757.0,1720.0,90.46237182617188,-19.537765502929688,-37.638240814208984,Left
3138.43603515625,28972,1,1752.0,1747.0,1723.0,1758.0,1755.0,1753.0,1759.0,1702.0,90.46237182617188,-19.537765502929688,-37.638240814208984,Left
3140.43603515625,28972,1,1762.0,1754.0,1673.0,1755.0,1751.0,1756.0,1764.0,1727.0,90.46237182617188,-19.537765502929688,-37.638240814208984,Left
3137.912109375,28973,1,1758.0,1784.0,1755.0,1765.0,1754.0,1753.0,1762.0,1755.0,90.46237182617188,-19.537765502929688,-37.638240814208984,Left
3139.912109375,28973,1,1768.0,1762.0,1759.0,1755.0,1756.0,1741.0,1765.0,1761.0,90.46237182617188,-19.537765502929688,-37.638240814208984,Left
3141.912109375,28973,1,1757.0,1759.0,1759.0,1746.0,1755.0,1757.0,1767.0,1750.0,90.51927185058594,-19.375919342041016,-37.643959045410156,Left
3143.912109375,28973,1,1762.0,1755.0,1763.0,1767.0,1752.0,1755.0,1765.0,1763.0,90.51927185058594,-19.375919342041016,-37.643959045410156,Left
3145.912109375,28973,1,1747.0,1755.0,1741.0,1750.0,1741.0,1752.0,1763.0,1753.0,90.51927185058594,-19.375919342041016,-37.643959045410156,Left
3152.929931640625,28974,1,1763.0,1757.0,1721.0,1755.0,1755.0,1754.0,1757.0,1747.0,90.51927185058594,-19.375919342041016,-37.643959045410156,Left
3154.929931640625,28974,1,1765.0,1751.0,1749.0,1755.0,1753.0,1742.0,1763.0,1765.0,90.51927185058594,-19.375919342041016,-37.643959045410156,Left
3156.929931640625,28974,1,1763.0,1758.0,1817.0,1771.0,1753.0,1753.0,1759.0,1741.0,90.51927185058594,-19.375919342041016,-37.643959045410156,Left
3158.929931640625,28974,1,1763.0,1757.0,1741.0,1754.0,1755.0,1754.0,1765.0,1747.0,90.51927185058594,-19.375919342041016,-37.643959045410156,Left
3160.929931640625,28974,1,1763.0,1747.0,1759.0,1749.0,1754.0,1749.0,1759.0,1758.0,90.51927185058594,-19.375919342041016,-37.643959045410156,Left
3167.533203125,28975,1,1765.0,1781.0,1769.0,1754.0,1743.0,1755.0,1763.0,1774.0,90.51927185058594,-19.375919342041016,-37.643959045410156,Left
3169.533203125,28975,1,1763.0,1771.0,1783.0,1765.0,1757.0,1753.0,1759.0,1749.0,90.51927185058594,-19.375919342041016,-37.643959045410156,Left
3171.533203125,28975,1,1757.0,1763.0,1749.0,1743.0,1745.0,1755.0,1752.0,1754.0,90.51927185058594,-19.375919342041016,-37.643959045410156,Left
3173.533203125,28975,1,1753.0,1749.0,1762.0,1762.0,1752.0,1743.0,1759.0,1753.0,90.51927185058594,-19.375919342041016,-37.643959045410156,Left
3175.533203125,28975,1,1758.0,1751.0,1737.0,1751.0,1756.0,1741.0,1763.0,1725.0,90.51927185058594,-19.375919342041016,-37.643959045410156,Left
3168.218017578125,28976,1,1763.0,1771.0,1748.0,1764.0,1750.0,1751.0,1765.0,1747.0,90.51927185058594,-19.375919342041016,-37.643959045410156,Left
3170.218017578125,28976,1,1763.0,1767.0,1773.0,1792.0,1745.0,1751.0,1755.0,1754.0,90.51927185058594,-19.375919342041016,-37.643959045410156,Left
3172.218017578125,28976,1,1758.0,1750.0,1747.0,1745.0,1747.0,1754.0,1765.0,1747.0,90.51927185058594,-19.375919342041016,-37.643959045410156,Left
3174.218017578125,28976,1,1757.0,1779.0,1752.0,1767.0,1755.0,1749.0,1763.0,1723.0,90.51927185058594,-19.375919342041016,-37.643959045410156,Left
3176.218017578125,28976,1,1763.0,1752.0,1719.0,1756.0,1755.0,1756.0,1763.0,1737.0,90.51927185058594,-19.375919342041016,-37.643959045410156,Left
3177.739013671875,28977,1,1765.0,1765.0,1763.0,1753.0,1749.0,1751.0,1758.0,1735.0,90.51927185058594,-19.375919342041016,-37.643959045410156,Left
3179.739013671875,28977,1,1763.0,1758.0,1775.0,1755.0,1750.0,1754.0,1765.0,1751.0,90.51927185058594,-19.375919342041016,-37.643959045410156,Left
3181.739013671875,28977,1,1753.0,1747.0,1742.0,1757.0,1747.0,1755.0,1763.0,1745.0,90.51927185058594,-19.375919342041016,-37.643959045410156,Left
3183.739013671875,28977,1,1764.0,1755.0,1752.0,1747.0,1751.0,1743.0,1765.0,1771.0,90.51927185058594,-19.375919342041016,-37.643959045410156,Left
3185.739013671875,28977,1,1765.0,1785.0,1768.0,1752.0,1753.0,1741.0,1759.0,1769.0,90.51927185058594,-19.375919342041016,-37.643959045410156,Left
3194.78515625,28978,1,1753.0,1763.0,1790.0,1767.0,1751.0,1752.0,1763.0,1784.0,90.51927185058594,-19.375919342041016,-37.643959045410156,Left
3196.78515625,28978,1,1764.0,1772.0,1766.0,1753.0,1753.0,1755.0,1766.0,1756.0,90.51927185058594,-19.375919342041016,-37.643959045410156,Left
3198.78515625,28978,1,1753.0,1765.0,1772.0,1767.0,1745.0,1754.0,1759.0,1747.0,90.51927185058594,-19.375919342041016,-37.643959045410156,Left
3200.78515625,28978,1,1764.0,1781.0,1748.0,1783.0,1755.0,1740.0,1759.0,1743.0,90.51927185058594,-19.375919342041016,-37.643959045410156,Left
3202.78515625,28978,1,1764.0,1757.0,1741.0,1738.0,1753.0,1741.0,1765.0,1747.0,90.51927185058594,-19.375919342041016,-37.643959045410156,Left
3197.6240234375,28979,1,1753.0,1752.0,1755.0,1746.0,1753.0,1753.0,1764.0,1735.0,90.51927185058594,-19.375919342041016,-37.643959045410156,Left
3199.6240234375,28979,1,1763.0,1755.0,1756.0,1767.0,1755.0,1758.0,1762.0,1749.0,90.51927185058594,-19.375919342041016,-37.643959045410156,Left
3201.6240234375,28979,1,1759.0,1747.0,1783.0,1768.0,1753.0,1747.0,1758.0,1749.0,90.51927185058594,-19.375919342041016,-37.643959045410156,Left
3203.6240234375,28979,1,1751.0,1766.0,1737.0,1765.0,1743.0,1753.0,1763.0,1767.0,90.51927185058594,-19.375919342041016,-37.643959045410156,Left
3205.6240234375,28979,1,1754.0,1763.0,1749.0,1749.0,1755.0,1747.0,1752.0,1747.0,90.51927185058594,-19.375919342041016,-37.643959045410156,Left
3211.175048828125,28980,1,1759.0,1767.0,1773.0,1770.0,1757.0,1741.0,1759.0,1775.0,90.67176055908203,-19.27010726928711,-37.631160736083984,Left
3213.175048828125,28980,1,1765.0,1763.0,1767.0,1756.0,1752.0,1752.0,1763.0,1739.0,90.67176055908203,-19.27010726928711,-37.631160736083984,Left
3215.175048828125,28980,1,1763.0,1764.0,1757.0,1752.0,1753.0,1741.0,1763.0,1763.0,90.67176055908203,-19.27010726928711,-37.631160736083984,Left
3217.175048828125,28980,1,1762.0,1753.0,1815.0,1775.0,1753.0,1755.0,1766.0,1753.0,90.67176055908203,-19.27010726928711,-37.631160736083984,Left
3219.175048828125,28980,1,1763.0,1763.0,1743.0,1752.0,1747.0,1754.0,1755.0,1722.0,90.67176055908203,-19.27010726928711,-37.631160736083984,Left
3219.76025390625,28981,1,1757.0,1773.0,1709.0,1745.0,1741.0,1747.0,1765.0,1742.0,90.67176055908203,-19.27010726928711,-37.631160736083984,Left
3221.76025390625,28981,1,1759.0,1765.0,1755.0,1767.0,1749.0,1754.0,1763.0,1748.0,90.67176055908203,-19.27010726928711,-37.631160736083984,Left
3223.76025390625,28981,1,1753.0,1753.0,1754.0,1765.0,1746.0,1757.0,1755.0,1751.0,90.67176055908203,-19.27010726928711,-37.631160736083984,Left
3225.76025390625,28981,1,1765.0,1756.0,1755.0,1748.0,1751.0,1753.0,1759.0,1757.0,90.67176055908203,-19.27010726928711,-37.631160736083984,Left
3227.76025390625,28981,1,1767.0,1767.0,1775.0,1754.0,1754.0,1753.0,1765.0,1767.0,90.67176055908203,-19.27010726928711,-37.631160736083984,Left
3231.897216796875,28982,1,1762.0,1757.0,1767.0,1763.0,1753.0,1753.0,1752.0,1752.0,90.67176055908203,-19.27010726928711,-37.631160736083984,Left
3233.897216796875,28982,1,1763.0,1752.0,1739.0,1748.0,1755.0,1742.0,1754.0,1739.0,90.67176055908203,-19.27010726928711,-37.631160736083984,Left
3235.897216796875,28982,1,1759.0,1747.0,1767.0,1757.0,1752.0,1741.0,1757.0,1738.0,90.67176055908203,-19.27010726928711,-37.631160736083984,Left
3237.897216796875,28982,1,1764.0,1772.0,1779.0,1771.0,1752.0,1755.0,1759.0,1714.0,90.67176055908203,-19.27010726928711,-37.631160736083984,Left
3239.897216796875,28982,1,1763.0,1765.0,1775.0,1765.0,1741.0,1751.0,1764.0,1727.0,90.67176055908203,-19.27010726928711,-37.631160736083984,Left
3245.155029296875,28983,1,1761.0,1767.0,1751.0,1753.0,1749.0,1755.0,1767.0,1755.0,90.67176055908203,-19.27010726928711,-37.631160736083984,Left
3247.155029296875,28983,1,1753.0,1763.0,1775.0,1747.0,1756.0,1755.0,1765.0,1783.0,90.67176055908203,-19.27010726928711,-37.631160736083984,Left
3249.155029296875,28983,1,1761.0,1767.0,1726.0,1761.0,1763.0,1759.0,1757.0,1753.0,90.67176055908203,-19.27010726928711,-37.631160736083984,Left
3251.155029296875,28983,1,1757.0,1769.0,1741.0,1764.0,1757.0,1750.0,1763.0,1751.0,90.67176055908203,-19.27010726928711,-37.631160736083984,Left
3253.155029296875,28983,1,1765.0,1766.0,1768.0,1763.0,1755.0,1741.0,1765.0,1757.0,90.67176055908203,-19.27010726928711,-37.631160736083984,Left
3251.834228515625,28984,1,1751.0,1767.0,1749.0,1751.0,1754.0,1755.0,1764.0,1751.0,90.67176055908203,-19.27010726928711,-37.631160736083984,Left
3253.834228515625,28984,1,1757.0,1742.0,1753.0,1757.0,1755.0,1753.0,1764.0,1740.0,90.67176055908203,-19.27010726928711,-37.631160736083984,Left
3255.834228515625,28984,1,1764.0,1753.0,1754.0,1753.0,1754.0,1746.0,1763.0,1749.0,90.67176055908203,-19.27010726928711,-37.631160736083984,Left
3257.834228515625,28984,1,1754.0,1785.0,1772.0,1775.0,1753.0,1749.0,1752.0,1727.0,90.67176055908203,-19.27010726928711,-37.631160736083984,Left
3259.834228515625,28984,1,1764.0,1753.0,1735.0,1758.0,1756.0,1754.0,1751.0,1727.0,90.67176055908203,-19.27010726928711,-37.631160736083984,Left
3277.044921875,28985,1,1752.0,1766.0,1746.0,1743.0,1755.0,1752.0,1759.0,1755.0,90.67176055908203,-19.27010726928711,-37.631160736083984,Left
3279.044921875,28985,1,1752.0,1765.0,1763.0,1751.0,1754.0,1752.0,1761.0,1767.0,90.67176055908203,-19.27010726928711,-37.631160736083984,Left
3281.044921875,28985,1,1765.0,1768.0,1751.0,1763.0,1752.0,1746.0,1763.0,1741.0,90.67176055908203,-19.27010726928711,-37.631160736083984,Left
3283.044921875,28985,1,1759.0,1768.0,1755.0,1763.0,1755.0,1751.0,1767.0,1763.0,90.67176055908203,-19.27010726928711,-37.631160736083984,Left
3285.044921875,28985,1,1763.0,1757.0,1739.0,1738.0,1751.0,1751.0,1765.0,1752.0,90.67176055908203,-19.27010726928711,-37.631160736083984,Left
3282.06591796875,28986,1,1759.0,1763.0,1769.0,1763.0,1753.0,1751.0,1764.0,1755.0,90.67176055908203,-19.27010726928711,-37.631160736083984,Left
3284.06591796875,28986,1,1763.0,1773.0,1787.0,1774.0,1753.0,1753.0,1759.0,1755.0,90.67176055908203,-19.27010726928711,-37.631160736083984,Left
3286.06591796875,28986,1,1764.0,1739.0,1741.0,1737.0,1752.0,1755.0,1753.0,1752.0,90.71395874023438,-19.23587989807129,-37.63811111450195,Left
3288.06591796875,28986,1,1756.0,1781.0,1739.0,1757.0,1743.0,1741.0,1763.0,1727.0,90.71395874023438,-19.23587989807129,-37.63811111450195,Left
3290.06591796875,28986,1,1762.0,1768.0,1759.0,1771.0,1742.0,1750.0,1762.0,1767.0,90.71395874023438,-19.23587989807129,-37.63811111450195,Left
3282.994140625,28987,1,1770.0,1759.0,1775.0,1773.0,1754.0,1752.0,1764.0,1743.0,90.71395874023438,-19.23587989807129,-37.63811111450195,Left
3284.994140625,28987,1,1756.0,1740.0,1747.0,1749.0,1755.0,1756.0,1753.0,1743.0,90.71395874023438,-19.23587989807129,-37.63811111450195,Left
3286.994140625,28987,1,1753.0,1753.0,1757.0,1759.0,1755.0,1756.0,1756.0,1727.0,90.71395874023438,-19.23587989807129,-37.63811111450195,Left
3288.994140625,28987,1,1746.0,1765.0,1749.0,1742.0,1743.0,1751.0,1763.0,1767.0,90.71395874023438,-19.23587989807129,-37.63811111450195,Left
3290.994140625,28987,1,1759.0,1758.0,1767.0,1763.0,1743.0,1743.0,1765.0,1758.0,90.71395874023438,-19.23587989807129,-37.63811111450195,Left
3290.123046875,28988,1,1762.0,1739.0,1746.0,1773.0,1755.0,1755.0,1758.0,1739.0,90.71395874023438,-19.23587989807129,-37.63811111450195,Left
3292.123046875,28988,1,1759.0,1764.0,1755.0,1741.0,1741.0,1755.0,1752.0,1738.0,90.71395874023438,-19.23587989807129,-37.63811111450195,Left
3294.123046875,28988,1,1761.0,1767.0,1753.0,1765.0,1750.0,1745.0,1756.0,1736.0,90.71395874023438,-19.23587989807129,-37.63811111450195,Left
3296.123046875,28988,1,1763.0,1764.0,1753.0,1747.0,1751.0,1751.0,1759.0,1735.0,90.71395874023438,-19.23587989807129,-37.63811111450195,Left
3298.123046875,28988,1,1753.0,1758.0,1750.0,1738.0,1753.0,1754.0,1763.0,1723.0,90.71395874023438,-19.23587989807129,-37.63811111450195,Left
3297.035888671875,28989,1,1763.0,1767.0,1764.0,1748.0,1751.0,1757.0,1759.0,1767.0,90.71395874023438,-19.23587989807129,-37.63811111450195,Left
3299.035888671875,28989,1,1752.0,1756.0,1769.0,1757.0,1751.0,1753.0,1764.0,1745.0,90.71395874023438,-19.23587989807129,-37.63811111450195,Left
3301.035888671875,28989,1,1763.0,1757.0,1775.0,1757.0,1742.0,1751.0,1765.0,1752.0,90.71395874023438,-19.23587989807129,-37.63811111450195,Left
3303.035888671875,28989,1,1763.0,1752.0,1693.0,1780.0,1755.0,1754.0,1765.0,1749.0,90.71395874023438,-19.23587989807129,-37.63811111450195,Left
3305.035888671875,28989,1,1763.0,1752.0,1766.0,1769.0,1755.0,1739.0,1757.0,1763.0,90.71395874023438,-19.23587989807129,-37.63811111450195,Left
3314.253173828125,28990,1,1751.0,1771.0,1768.0,1749.0,1754.0,1753.0,1764.0,1756.0,90.71395874023438,-19.23587989807129,-37.63811111450195,Left
3316.253173828125,28990,1,1761.0,1787.0,1823.0,1771.0,1755.0,1743.0,1759.0,1767.0,90.71395874023438,-19.23587989807129,-37.63811111450195,Left
3318.253173828125,28990,1,1759.0,1757.0,1724.0,1756.0,1753.0,1755.0,1765.0,1720.0,90.71395874023438,-19.23587989807129,-37.63811111450195,Left
3320.253173828125,28990,1,1759.0,1752.0,1717.0,1748.0,1752.0,1755.0,1763.0,1747.0,90.71395874023438,-19.23587989807129,-37.63811111450195,Left
3322.253173828125,28990,1,1753.0,1767.0,1754.0,1742.0,1751.0,1753.0,1759.0,1751.0,90.71395874023438,-19.23587989807129,-37.63811111450195,Left
3321.894775390625,28991,1,1761.0,1787.0,1783.0,1791.0,1751.0,1755.0,1762.0,1769.0,90.71395874023438,-19.23587989807129,-37.63811111450195,Left
3323.894775390625,28991,1,1759.0,1756.0,1741.0,1743.0,1753.0,1756.0,1753.0,1742.0,90.71395874023438,-19.23587989807129,-37.63811111450195,Left
3325.894775390625,28991,1,1763.0,1755.0,1745.0,1751.0,1752.0,1753.0,1765.0,1757.0,90.71395874023438,-19.23587989807129,-37.63811111450195,Left
3327.894775390625,28991,1,1761.0,1759.0,1770.0,1765.0,1754.0,1755.0,1761.0,1757.0,90.71395874023438,-19.23587989807129,-37.63811111450195,Left
3329.894775390625,28991,1,1761.0,1767.0,1743.0,1755.0,1755.0,1750.0,1759.0,1757.0,90.71395874023438,-19.23587989807129,-37.63811111450195,Left
3332.197998046875,28992,1,1762.0,1754.0,1756.0,1749.0,1752.0,1752.0,1763.0,1723.0,90.71395874023438,-19.23587989807129,-37.63811111450195,Left
3334.197998046875,28992,1,1763.0,1751.0,1765.0,1768.0,1753.0,1743.0,1750.0,1715.0,90.71395874023438,-19.23587989807129,-37.63811111450195,Left
3336.197998046875,28992,1,1763.0,1755.0,1762.0,1753.0,1756.0,1750.0,1762.0,1759.0,90.71395874023438,-19.23587989807129,-37.63811111450195,Left
3338.197998046875,28992,1,1762.0,1741.0,1781.0,1756.0,1755.0,1753.0,1763.0,1769.0,90.71395874023438,-19.23587989807129,-37.63811111450195,Left
3340.197998046875,28992,1,1763.0,1757.0,1737.0,1748.0,1751.0,1741.0,1753.0,1733.0,90.86058044433594,-19.225013732910156,-37.58669662475586,Left
3342.89013671875,28993,1,1759.0,1767.0,1752.0,1767.0,1753.0,1753.0,1752.0,1748.0,90.86058044433594,-19.225013732910156,-37.58669662475586,Left
3344.89013671875,28993,1,1763.0,1765.0,1750.0,1764.0,1753.0,1766.0,1763.0,1741.0,90.86058044433594,-19.225013732910156,-37.58669662475586,Left
3346.89013671875,28993,1,1751.0,1758.0,1753.0,1753.0,1753.0,1751.0,1765.0,1769.0,90.86058044433594,-19.225013732910156,-37.58669662475586,Left
3348.89013671875,28993,1,1756.0,1757.0,1749.0,1769.0,1751.0,1747.0,1765.0,1745.0,90.86058044433594,-19.225013732910156,-37.58669662475586,Left
3350.89013671875,28993,1,1759.0,1771.0,1772.0,1771.0,1741.0,1753.0,1758.0,1765.0,90.86058044433594,-19.225013732910156,-37.58669662475586,Left
3351.72412109375,28994,1,1758.0,1765.0,1761.0,1739.0,1752.0,1756.0,1758.0,1758.0,90.86058044433594,-19.225013732910156,-37.58669662475586,Left
3353.72412109375,28994,1,1755.0,1747.0,1803.0,1743.0,1755.0,1752.0,1757.0,1781.0,90.86058044433594,-19.225013732910156,-37.58669662475586,Left
3355.72412109375,28994,1,1752.0,1757.0,1751.0,1765.0,1751.0,1741.0,1765.0,1735.0,90.86058044433594,-19.225013732910156,-37.58669662475586,Left
3357.72412109375,28994,1,1757.0,1771.0,1717.0,1764.0,1753.0,1743.0,1761.0,1723.0,90.86058044433594,-19.225013732910156,-37.58669662475586,Left
3359.72412109375,28994,1,1753.0,1747.0,1725.0,1756.0,1753.0,1753.0,1764.0,1725.0,90.86058044433594,-19.225013732910156,-37.58669662475586,Left
3369.281005859375,28995,1,1763.0,1733.0,1749.0,1747.0,1755.0,1751.0,1765.0,1741.0,90.86058044433594,-19.225013732910156,-37.58669662475586,Left
3371.281005859375,28995,1,1757.0,1752.0,1757.0,1763.0,1751.0,1753.0,1765.0,1751.0,90.86058044433594,-19.225013732910156,-37.58669662475586,Left
3373.281005859375,28995,1,1759.0,1767.0,1762.0,1755.0,1757.0,1742.0,1765.0,1767.0,90.86058044433594,-19.225013732910156,-37.58669662475586,Left
3375.281005859375,28995,1,1764.0,1765.0,1788.0,1777.0,1754.0,1752.0,1759.0,1784.0,90.86058044433594,-19.225013732910156,-37.58669662475586,Left
3377.281005859375,28995,1,1763.0,1761.0,1741.0,1755.0,1754.0,1754.0,1756.0,1721.0,90.86058044433594,-19.225013732910156,-37.58669662475586,Left
3371.958984375,28996,1,1752.0,1747.0,1753.0,1757.0,1755.0,1749.0,1764.0,1747.0,90.86058044433594,-19.225013732910156,-37.58669662475586,Left
3373.958984375,28996,1,1761.0,1763.0,1749.0,1753.0,1757.0,1739.0,1759.0,1737.0,90.86058044433594,-19.225013732910156,-37.58669662475586,Left
3375.958984375,28996,1,1765.0,1749.0,1763.0,1763.0,1753.0,1753.0,1753.0,1752.0,90.86058044433594,-19.225013732910156,-37.58669662475586,Left
3377.958984375,28996,1,1763.0,1763.0,1763.0,1765.0,1755.0,1755.0,1762.0,1743.0,90.86058044433594,-19.225013732910156,-37.58669662475586,Left
3379.958984375,28996,1,1763.0,1758.0,1755.0,1759.0,1742.0,1752.0,1763.0,1738.0,90.86058044433594,-19.225013732910156,-37.58669662475586,Left
3386.42724609375,28997,1,1755.0,1774.0,1753.0,1741.0,1754.0,1751.0,1759.0,1741.0,90.86058044433594,-19.225013732910156,-37.58669662475586,Left
3388.42724609375,28997,1,1764.0,1767.0,1753.0,1750.0,1755.0,1754.0,1764.0,1756.0,90.86058044433594,-19.225013732910156,-37.58669662475586,Left
3390.42724609375,28997,1,1750.0,1747.0,1757.0,1751.0,1752.0,1747.0,1762.0,1763.0,90.86058044433594,-19.225013732910156,-37.58669662475586,Left
3392.42724609375,28997,1,1759.0,1761.0,1755.0,1757.0,1755.0,1749.0,1765.0,1766.0,90.86058044433594,-19.225013732910156,-37.58669662475586,Left
3394.42724609375,28997,1,1763.0,1763.0,1751.0,1759.0,1753.0,1755.0,1765.0,1763.0,90.86058044433594,-19.225013732910156,-37.58669662475586,Left
3402.5029296875,28998,1,1751.0,1751.0,1775.0,1770.0,1751.0,1755.0,1759.0,1762.0,90.86058044433594,-19.225013732910156,-37.58669662475586,Left
3404.5029296875,28998,1,1763.0,1763.0,1763.0,1767.0,1752.0,1752.0,1754.0,1724.0,90.86058044433594,-19.225013732910156,-37.58669662475586,Left
3406.5029296875,28998,1,1765.0,1765.0,1767.0,1765.0,1755.0,1741.0,1765.0,1752.0,90.86058044433594,-19.225013732910156,-37.58669662475586,Left
3408.5029296875,28998,1,1751.0,1771.0,1785.0,1759.0,1755.0,1743.0,1765.0,1757.0,90.86058044433594,-19.225013732910156,-37.58669662475586,Left
3410.5029296875,28998,1,1759.0,1763.0,1757.0,1739.0,1751.0,1743.0,1764.0,1752.0,90.86058044433594,-19.225013732910156,-37.58669662475586,Left
3403.0400390625,28999,1,1756.0,1758.0,1738.0,1751.0,1752.0,1752.0,1753.0,1710.0,90.86058044433594,-19.225013732910156,-37.58669662475586,Left
3405.0400390625,28999,1,1759.0,1767.0,1757.0,1765.0,1749.0,1739.0,1763.0,1767.0,90.86058044433594,-19.225013732910156,-37.58669662475586,Left
3407.0400390625,28999,1,1757.0,1765.0,1743.0,1755.0,1741.0,1757.0,1755.0,1738.0,90.83641052246094,-19.191993713378906,-37.51094436645508,Left
3409.0400390625,28999,1,1751.0,1749.0,1763.0,1775.0,1751.0,1755.0,1764.0,1753.0,90.83641052246094,-19.191993713378906,-37.51094436645508,Left
3411.0400390625,28999,1,1765.0,1750.0,1737.0,1736.0,1753.0,1741.0,1764.0,1723.0,90.83641052246094,-19.191993713378906,-37.51094436645508,Left
3410.030029296875,29000,1,1763.0,1779.0,1767.0,1779.0,1757.0,1747.0,1764.0,1745.0,90.83641052246094,-19.191993713378906,-37.51094436645508,Left
3412.030029296875,29000,1,1759.0,1765.0,1775.0,1753.0,1741.0,1743.0,1751.0,1752.0,90.83641052246094,-19.191993713378906,-37.51094436645508,Left
3414.030029296875,29000,1,1759.0,1753.0,1771.0,1764.0,1755.0,1755.0,1756.0,1743.0,90.83641052246094,-19.191993713378906,-37.51094436645508,Left
3416.030029296875,29000,1,1765.0,1762.0,1742.0,1763.0,1755.0,1751.0,1752.0,1751.0,90.83641052246094,-19.191993713378906,-37.51094436645508,Left
3418.030029296875,29000,1,1763.0,1747.0,1753.0,1747.0,1754.0,1753.0,1751.0,1767.0,90.83641052246094,-19.191993713378906,-37.51094436645508,Left
3420.35498046875,29001,1,1753.0,1775.0,1771.0,1765.0,1751.0,1740.0,1766.0,1756.0,90.83641052246094,-19.191993713378906,-37.51094436645508,Left
3422.35498046875,29001,1,1763.0,1773.0,1765.0,1775.0,1753.0,1767.0,1765.0,1719.0,90.83641052246094,-19.191993713378906,-37.51094436645508,Left
3424.35498046875,29001,1,1763.0,1748.0,1706.0,1747.0,1750.0,1757.0,1764.0,1735.0,90.83641052246094,-19.191993713378906,-37.51094436645508,Left
3426.35498046875,29001,1,1753.0,1753.0,1785.0,1759.0,1755.0,1743.0,1753.0,1809.0,90.83641052246094,-19.191993713378906,-37.51094436645508,Left
3428.35498046875,29001,1,1763.0,1763.0,1797.0,1757.0,1752.0,1747.0,1765.0,1781.0,90.83641052246094,-19.191993713378906,-37.51094436645508,Left
3430.303955078125,29002,1,1765.0,1787.0,1737.0,1765.0,1742.0,1750.0,1764.0,1734.0,90.83641052246094,-19.191993713378906,-37.51094436645508,Left
3432.303955078125,29002,1,1763.0,1769.0,1763.0,1769.0,1753.0,1755.0,1765.0,1741.0,90.83641052246094,-19.191993713378906,-37.51094436645508,Left
3434.303955078125,29002,1,1763.0,1751.0,1723.0,1749.0,1754.0,1741.0,1766.0,1716.0,90.83641052246094,-19.191993713378906,-37.51094436645508,Left
3436.303955078125,29002,1,1765.0,1743.0,1737.0,1740.0,1747.0,1756.0,1765.0,1737.0,90.83641052246094,-19.191993713378906,-37.51094436645508,Left
3438.303955078125,29002,1,1761.0,1753.0,1757.0,1745.0,1753.0,1751.0,1764.0,1721.0,90.83641052246094,-19.191993713378906,-37.51094436645508,Left
3439.0400390625,29003,1,1763.0,1749.0,1800.0,1781.0,1752.0,1754.0,1765.0,1763.0,90.83641052246094,-19.191993713378906,-37.51094436645508,Left
3441.0400390625,29003,1,1759.0,1775.0,1797.0,1758.0,1753.0,1756.0,1752.0,1761.0,90.83641052246094,-19.191993713378906,-37.51094436645508,Left
3443.0400390625,29003,1,1759.0,1769.0,1749.0,1756.0,1752.0,1755.0,1765.0,1738.0,90.83641052246094,-19.191993713378906,-37.51094436645508,Left
3445.0400390625,29003,1,1753.0,1743.0,1737.0,1754.0,1753.0,1754.0,1764.0,1753.0,90.83641052246094,-19.191993713378906,-37.51094436645508,Left
3447.0400390625,29003,1,1763.0,1755.0,1766.0,1764.0,1752.0,1753.0,1765.0,1768.0,90.83641052246094,-19.191993713378906,-37.51094436645508,Left
3451.19775390625,29004,1,1751.0,1753.0,1754.0,1754.0,1753.0,1755.0,1763.0,1733.0,90.83641052246094,-19.191993713378906,-37.51094436645508,Left
3453.19775390625,29004,1,1752.0,1765.0,1747.0,1751.0,1753.0,1750.0,1763.0,1717.0,90.83641052246094,-19.191993713378906,-37.51094436645508,Left
3455.19775390625,29004,1,1755.0,1754.0,1757.0,1765.0,1747.0,1751.0,1759.0,1752.0,90.83641052246094,-19.191993713378906,-37.51094436645508,Left
3457.19775390625,29004,1,1765.0,1763.0,1787.0,1765.0,1755.0,1739.0,1764.0,1763.0,90.83641052246094,-19.191993713378906,-37.51094436645508,Left
3459.19775390625,29004,1,1757.0,1764.0,1741.0,1757.0,1753.0,1739.0,1765.0,1765.0,90.83641052246094,-19.191993713378906,-37.51094436645508,Left
3472.572998046875,29005,1,1763.0,1789.0,1737.0,1769.0,1743.0,1751.0,1766.0,1710.0,90.83641052246094,-19.191993713378906,-37.51094436645508,Left
3474.572998046875,29005,1,1763.0,1750.0,1735.0,1758.0,1753.0,1755.0,1758.0,1726.0,90.83641052246094,-19.191993713378906,-37.51094436645508,Left
3476.572998046875,29005,1,1763.0,1765.0,1751.0,1763.0,1755.0,1755.0,1752.0,1770.0,90.83641052246094,-19.191993713378906,-37.51094436645508,Left
3478.572998046875,29005,1,1759.0,1741.0,1765.0,1767.0,1742.0,1755.0,1758.0,1755.0,90.83641052246094,-19.191993713378906,-37.51094436645508,Left
3480.572998046875,29005,1,1754.0,1757.0,1736.0,1747.0,1741.0,1748.0,1755.0,1754.0,90.83641052246094,-19.191993713378906,-37.51094436645508,Left
3476.2880859375,29006,1,1759.0,1759.0,1754.0,1753.0,1747.0,1753.0,1761.0,1737.0,90.83988952636719,-19.194610595703125,-37.465572357177734,Left
3478.2880859375,29006,1,1763.0,1773.0,1783.0,1775.0,1755.0,1742.0,1764.0,1769.0,90.83988952636719,-19.194610595703125,-37.465572357177734,Left
3480.2880859375,29006,1,1765.0,1765.0,1772.0,1746.0,1741.0,1742.0,1763.0,1751.0,90.83988952636719,-19.194610595703125,-37.465572357177734,Left
3482.2880859375,29006,1,1747.0,1755.0,1765.0,1761.0,1743.0,1753.0,1753.0,1769.0,90.83988952636719,-19.194610595703125,-37.465572357177734,Left
3484.2880859375,29006,1,1762.0,1772.0,1753.0,1754.0,1753.0,1742.0,1758.0,1711.0,90.83988952636719,-19.194610595703125,-37.465572357177734,Left
3488.419921875,29007,1,1763.0,1763.0,1712.0,1747.0,1751.0,1757.0,1766.0,1715.0,90.83988952636719,-19.194610595703125,-37.465572357177734,Left
3490.419921875,29007,1,1753.0,1762.0,1747.0,1770.0,1755.0,1752.0,1765.0,1775.0,90.83988952636719,-19.194610595703125,-37.465572357177734,Left
3492.419921875,29007,1,1757.0,1756.0,1779.0,1753.0,1753.0,1754.0,1764.0,1778.0,90.83988952636719,-19.194610595703125,-37.465572357177734,Left
3494.419921875,29007,1,1759.0,1757.0,1767.0,1756.0,1753.0,1751.0,1764.0,1773.0,90.83988952636719,-19.194610595703125,-37.465572357177734,Left
3496.419921875,29007,1,1751.0,1775.0,1772.0,1749.0,1741.0,1752.0,1765.0,1765.0,90.83988952636719,-19.194610595703125,-37.465572357177734,Left
3488.879150390625,29008,1,1757.0,1759.0,1758.0,1737.0,1753.0,1742.0,1752.0,1735.0,90.83988952636719,-19.194610595703125,-37.465572357177734,Left
3490.879150390625,29008,1,1753.0,1752.0,1741.0,1751.0,1746.0,1751.0,1766.0,1735.0,90.83988952636719,-19.194610595703125,-37.465572357177734,Left
3492.879150390625,29008,1,1751.0,1773.0,1758.0,1787.0,1753.0,1741.0,1762.0,1735.0,90.83988952636719,-19.194610595703125,-37.465572357177734,Left
3494.879150390625,29008,1,1758.0,1759.0,1753.0,1767.0,1753.0,1753.0,1764.0,1735.0,90.83988952636719,-19.194610595703125,-37.465572357177734,Left
3496.879150390625,29008,1,1758.0,1764.0,1779.0,1752.0,1743.0,1742.0,1763.0,1764.0,90.83988952636719,-19.194610595703125,-37.465572357177734,Left
3504.85205078125,29009,1,1759.0,1748.0,1771.0,1739.0,1755.0,1745.0,1753.0,1745.0,90.83988952636719,-19.194610595703125,-37.465572357177734,Left
3506.85205078125,29009,1,1765.0,1771.0,1756.0,1767.0,1751.0,1753.0,1759.0,1771.0,90.83988952636719,-19.194610595703125,-37.465572357177734,Left
3508.85205078125,29009,1,1757.0,1766.0,1735.0,1746.0,1743.0,1749.0,1764.0,1754.0,90.83988952636719,-19.194610595703125,-37.465572357177734,Left
3510.85205078125,29009,1,1764.0,1755.0,1763.0,1755.0,1755.0,1752.0,1754.0,1768.0,90.83988952636719,-19.194610595703125,-37.465572357177734,Left
3512.85205078125,29009,1,1764.0,1765.0,1751.0,1755.0,1753.0,1752.0,1753.0,1747.0,90.83988952636719,-19.194610595703125,-37.465572357177734,Left
3508.337890625,29010,1,1763.0,1752.0,1741.0,1764.0,1753.0,1741.0,1763.0,1724.0,90.83988952636719,-19.194610595703125,-37.465572357177734,Left
3510.337890625,29010,1,1765.0,1767.0,1724.0,1782.0,1755.0,1749.0,1739.0,1733.0,90.83988952636719,-19.194610595703125,-37.465572357177734,Left
3512.337890625,29010,1,1751.0,1761.0,1767.0,1763.0,1745.0,1752.0,1764.0,1758.0,90.83988952636719,-19.194610595703125,-37.465572357177734,Left
3514.337890625,29010,1,1757.0,1759.0,1765.0,1743.0,1751.0,1742.0,1763.0,1742.0,90.83988952636719,-19.194610595703125,-37.465572357177734,Left
3516.337890625,29010,1,1756.0,1751.0,1779.0,1757.0,1751.0,1749.0,1765.0,1726.0,90.83988952636719,-19.194610595703125,-37.465572357177734,Left
3523.64208984375,29011,1,1753.0,1753.0,1764.0,1758.0,1762.0,1739.0,1763.0,1779.0,90.83988952636719,-19.194610595703125,-37.465572357177734,Left
3525.64208984375,29011,1,1764.0,1764.0,1747.0,1766.0,1743.0,1753.0,1753.0,1752.0,90.83988952636719,-19.194610595703125,-37.465572357177734,Left
3527.64208984375,29011,1,1759.0,1751.0,1756.0,1755.0,1747.0,1755.0,1765.0,1755.0,90.83988952636719,-19.194610595703125,-37.465572357177734,Left
3529.64208984375,29011,1,1761.0,1753.0,1735.0,1773.0,1752.0,1751.0,1752.0,1734.0,90.83988952636719,-19.194610595703125,-37.465572357177734,Left
3531.64208984375,29011,1,1763.0,1779.0,1781.0,1771.0,1753.0,1753.0,1759.0,1763.0,90.83988952636719,-19.194610595703125,-37.465572357177734,Left
3531.15234375,29012,1,1763.0,1756.0,1757.0,1747.0,1753.0,1752.0,1758.0,1751.0,90.83988952636719,-19.194610595703125,-37.465572357177734,Left
3533.15234375,29012,1,1756.0,1757.0,1762.0,1752.0,1743.0,1752.0,1765.0,1757.0,90.83988952636719,-19.194610595703125,-37.465572357177734,Left
3535.15234375,29012,1,1763.0,1749.0,1775.0,1751.0,1753.0,1723.0,1763.0,1743.0,90.80904388427734,-19.16012954711914,-37.415672302246094,Left
3537.15234375,29012,1,1753.0,1749.0,1736.0,1751.0,1751.0,1751.0,1763.0,1717.0,90.80904388427734,-19.16012954711914,-37.415672302246094,Left
3539.15234375,29012,1,1762.0,1752.0,1727.0,1763.0,1753.0,1743.0,1751.0,1749.0,90.80904388427734,-19.16012954711914,-37.415672302246094,Left
3540.9541015625,29013,1,1763.0,1755.0,1763.0,1763.0,1751.0,1753.0,1762.0,1741.0,90.80904388427734,-19.16012954711914,-37.415672302246094,Left
3542.9541015625,29013,1,1751.0,1749.0,1768.0,1754.0,1752.0,1743.0,1749.0,1727.0,90.80904388427734,-19.16012954711914,-37.415672302246094,Left
3544.9541015625,29013,1,1757.0,1759.0,1711.0,1749.0,1743.0,1755.0,1752.0,1720.0,90.80904388427734,-19.16012954711914,-37.415672302246094,Left
3546.9541015625,29013,1,1761.0,1765.0,1709.0,1762.0,1753.0,1751.0,1763.0,1768.0,90.80904388427734,-19.16012954711914,-37.415672302246094,Left
3548.9541015625,29013,1,1763.0,1767.0,1812.0,1775.0,1750.0,1751.0,1752.0,1768.0,90.80904388427734,-19.16012954711914,-37.415672302246094,Left
3547.349853515625,29014,1,1752.0,1739.0,1822.0,1775.0,1753.0,1749.0,1767.0,1749.0,90.80904388427734,-19.16012954711914,-37.415672302246094,Left
3549.349853515625,29014,1,1755.0,1753.0,1752.0,1747.0,1747.0,1743.0,1771.0,1719.0,90.80904388427734,-19.16012954711914,-37.415672302246094,Left
3551.349853515625,29014,1,1765.0,1767.0,1743.0,1747.0,1755.0,1752.0,1763.0,1747.0,90.80904388427734,-19.16012954711914,-37.415672302246094,Left
3553.349853515625,29014,1,1764.0,1755.0,1757.0,1751.0,1747.0,1742.0,1753.0,1753.0,90.80904388427734,-19.16012954711914,-37.415672302246094,Left
3555.349853515625,29014,1,1764.0,1791.0,1747.0,1749.0,1755.0,1751.0,1762.0,1759.0,90.80904388427734,-19.16012954711914,-37.415672302246094,Left
3562.634033203125,29015,1,1763.0,1764.0,1727.0,1747.0,1751.0,1756.0,1758.0,1753.0,90.80904388427734,-19.16012954711914,-37.415672302246094,Left
3564.634033203125,29015,1,1771.0,1771.0,1768.0,1774.0,1757.0,1755.0,1755.0,1767.0,90.80904388427734,-19.16012954711914,-37.415672302246094,Left
3566.634033203125,29015,1,1765.0,1749.0,1751.0,1755.0,1754.0,1756.0,1752.0,1759.0,90.80904388427734,-19.16012954711914,-37.415672302246094,Left
3568.634033203125,29015,1,1758.0,1751.0,1779.0,1765.0,1751.0,1751.0,1763.0,1766.0,90.80904388427734,-19.16012954711914,-37.415672302246094,Left
3570.634033203125,29015,1,1763.0,1771.0,1751.0,1759.0,1751.0,1753.0,1767.0,1727.0,90.80904388427734,-19.16012954711914,-37.415672302246094,Left
3577.335205078125,29016,1,1763.0,1755.0,1775.0,1762.0,1743.0,1745.0,1765.0,1737.0,90.80904388427734,-19.16012954711914,-37.415672302246094,Left
3579.335205078125,29016,1,1761.0,1758.0,1748.0,1752.0,1765.0,1727.0,1757.0,1741.0,90.80904388427734,-19.16012954711914,-37.415672302246094,Left
3581.335205078125,29016,1,1754.0,1756.0,1743.0,1749.0,1743.0,1751.0,1766.0,1749.0,90.80904388427734,-19.16012954711914,-37.415672302246094,Left
3583.335205078125,29016,1,1752.0,1755.0,1758.0,1748.0,1755.0,1753.0,1753.0,1757.0,90.80904388427734,-19.16012954711914,-37.415672302246094,Left
3585.335205078125,29016,1,1765.0,1765.0,1823.0,1779.0,1751.0,1743.0,1765.0,1765.0,90.80904388427734,-19.16012954711914,-37.415672302246094,Left
3591.416015625,29017,1,1759.0,1763.0,1769.0,1755.0,1743.0,1741.0,1762.0,1755.0,90.80904388427734,-19.16012954711914,-37.415672302246094,Left
3593.416015625,29017,1,1751.0,1774.0,1734.0,1759.0,1742.0,1753.0,1764.0,1747.0,90.80904388427734,-19.16012954711914,-37.415672302246094,Left
3595.416015625,29017,1,1763.0,1759.0,1756.0,1761.0,1747.0,1754.0,1755.0,1749.0,90.80904388427734,-19.16012954711914,-37.415672302246094,Left
3597.416015625,29017,1,1762.0,1757.0,1758.0,1762.0,1751.0,1753.0,1751.0,1747.0,90.80904388427734,-19.16012954711914,-37.415672302246094,Left
3599.416015625,29017,1,1759.0,1755.0,1757.0,1752.0,1747.0,1753.0,1757.0,1765.0,90.80904388427734,-19.16012954711914,-37.415672302246094,Left
3591.982177734375,29018,1,1757.0,1739.0,1740.0,1753.0,1741.0,1755.0,1763.0,1735.0,90.80904388427734,-19.16012954711914,-37.415672302246094,Left
3593.982177734375,29018,1,1753.0,1763.0,1759.0,1757.0,1756.0,1753.0,1763.0,1763.0,90.80904388427734,-19.16012954711914,-37.415672302246094,Left
3595.982177734375,29018,1,1763.0,1775.0,1767.0,1767.0,1743.0,1756.0,1764.0,1747.0,90.80904388427734,-19.16012954711914,-37.415672302246094,Left
3597.982177734375,29018,1,1765.0,1779.0,1751.0,1757.0,1751.0,1756.0,1757.0,1740.0,90.80904388427734,-19.16012954711914,-37.415672302246094,Left
3599.982177734375,29018,1,1764.0,1756.0,1751.0,1747.0,1751.0,1752.0,1763.0,1737.0,90.80904388427734,-19.16012954711914,-37.415672302246094,Left
3604.484130859375,29019,1,1756.0,1783.0,1749.0,1738.0,1755.0,1747.0,1758.0,1749.0,90.78804016113281,-19.095016479492188,-37.359283447265625,Left
3606.484130859375,29019,1,1752.0,1749.0,1763.0,1756.0,1751.0,1755.0,1753.0,1754.0,90.78804016113281,-19.095016479492188,-37.359283447265625,Left
3608.484130859375,29019,1,1753.0,1743.0,1705.0,1756.0,1752.0,1755.0,1759.0,1711.0,90.78804016113281,-19.095016479492188,-37.359283447265625,Left
3610.484130859375,29019,1,1763.0,1749.0,1771.0,1779.0,1751.0,1754.0,1758.0,1775.0,90.78804016113281,-19.095016479492188,-37.359283447265625,Left
3612.484130859375,29019,1,1763.0,1759.0,1784.0,1775.0,1751.0,1752.0,1759.0,1771.0,90.78804016113281,-19.095016479492188,-37.359283447265625,Left
3607.323974609375,29020,1,1764.0,1745.0,1739.0,1759.0,1755.0,1753.0,1752.0,1723.0,90.78804016113281,-19.095016479492188,-37.359283447265625,Left
3609.323974609375,29020,1,1765.0,1771.0,1749.0,1741.0,1747.0,1750.0,1763.0,1747.0,90.78804016113281,-19.095016479492188,-37.359283447265625,Left
3611.323974609375,29020,1,1763.0,1757.0,1784.0,1757.0,1743.0,1755.0,1762.0,1769.0,90.78804016113281,-19.095016479492188,-37.359283447265625,Left
3613.323974609375,29020,1,1754.0,1740.0,1783.0,1759.0,1753.0,1755.0,1767.0,1769.0,90.78804016113281,-19.095016479492188,-37.359283447265625,Left
3615.323974609375,29020,1,1763.0,1751.0,1746.0,1771.0,1745.0,1753.0,1753.0,1725.0,90.78804016113281,-19.095016479492188,-37.359283447265625,Left
3619.31396484375,29021,1,1763.0,1762.0,1702.0,1741.0,1741.0,1755.0,1763.0,1695.0,90.78804016113281,-19.095016479492188,-37.359283447265625,Left
3621.31396484375,29021,1,1757.0,1771.0,1752.0,1773.0,1755.0,1752.0,1753.0,1755.0,90.78804016113281,-19.095016479492188,-37.359283447265625,Left
3623.31396484375,29021,1,1759.0,1773.0,1831.0,1769.0,1743.0,1754.0,1763.0,1801.0,90.78804016113281,-19.095016479492188,-37.359283447265625,Left
3625.31396484375,29021,1,1758.0,1770.0,1761.0,1775.0,1753.0,1755.0,1763.0,1767.0,90.78804016113281,-19.095016479492188,-37.359283447265625,Left
3627.31396484375,29021,1,1759.0,1750.0,1717.0,1755.0,1753.0,1743.0,1763.0,1711.0,90.78804016113281,-19.095016479492188,-37.359283447265625,Left
3628.01611328125,29022,1,1751.0,1755.0,1747.0,1747.0,1747.0,1751.0,1765.0,1751.0,90.78804016113281,-19.095016479492188,-37.359283447265625,Left
3630.01611328125,29022,1,1765.0,1737.0,1763.0,1746.0,1754.0,1749.0,1751.0,1743.0,90.78804016113281,-19.095016479492188,-37.359283447265625,Left
3632.01611328125,29022,1,1752.0,1783.0,1753.0,1766.0,1753.0,1754.0,1752.0,1735.0,90.78804016113281,-19.095016479492188,-37.359283447265625,Left
3634.01611328125,29022,1,1763.0,1767.0,1767.0,1768.0,1751.0,1755.0,1765.0,1727.0,90.78804016113281,-19.095016479492188,-37.359283447265625,Left
3636.01611328125,29022,1,1763.0,1771.0,1715.0,1747.0,1756.0,1753.0,1764.0,1740.0,90.78804016113281,-19.095016479492188,-37.359283447265625,Left
3638.004150390625,29023,1,1762.0,1773.0,1782.0,1772.0,1752.0,1757.0,1759.0,1763.0,90.78804016113281,-19.095016479492188,-37.359283447265625,Left
3640.004150390625,29023,1,1759.0,1753.0,1748.0,1759.0,1752.0,1749.0,1757.0,1751.0,90.78804016113281,-19.095016479492188,-37.359283447265625,Left
3642.004150390625,29023,1,1756.0,1752.0,1746.0,1755.0,1753.0,1755.0,1759.0,1767.0,90.78804016113281,-19.095016479492188,-37.359283447265625,Left
3644.004150390625,29023,1,1763.0,1751.0,1749.0,1751.0,1754.0,1753.0,1763.0,1752.0,90.78804016113281,-19.095016479492188,-37.359283447265625,Left
3646.004150390625,29023,1,1763.0,1775.0,1786.0,1769.0,1749.0,1753.0,1765.0,1764.0,90.78804016113281,-19.095016479492188,-37.359283447265625,Left
3655.827880859375,29024,1,1759.0,1785.0,1772.0,1757.0,1743.0,1753.0,1766.0,1770.0,90.78804016113281,-19.095016479492188,-37.359283447265625,Left
3657.827880859375,29024,1,1752.0,1758.0,1775.0,1764.0,1753.0,1739.0,1767.0,1755.0,90.78804016113281,-19.095016479492188,-37.359283447265625,Left
3659.827880859375,29024,1,1759.0,1769.0,1765.0,1756.0,1755.0,1755.0,1757.0,1758.0,90.78804016113281,-19.095016479492188,-37.359283447265625,Left
3661.827880859375,29024,1,1753.0,1770.0,1741.0,1757.0,1753.0,1751.0,1764.0,1733.0,90.78804016113281,-19.095016479492188,-37.359283447265625,Left
3663.827880859375,29024,1,1763.0,1763.0,1759.0,1762.0,1755.0,1743.0,1757.0,1757.0,90.78804016113281,-19.095016479492188,-37.359283447265625,Left
3664.59619140625,29025,1,1757.0,1739.0,1737.0,1754.0,1752.0,1748.0,1759.0,1751.0,90.78804016113281,-19.095016479492188,-37.359283447265625,Left
3666.59619140625,29025,1,1757.0,1772.0,1751.0,1786.0,1753.0,1755.0,1753.0,1739.0,90.78804016113281,-19.095016479492188,-37.359283447265625,Left
3668.59619140625,29025,1,1756.0,1757.0,1772.0,1764.0,1745.0,1750.0,1761.0,1755.0,90.8637924194336,-19.038148880004883,-37.35887145996094,Left
