Timestamp_ms,Packet_Number,Trial_ID,Ch1,Ch2,Ch3,Ch4,Ch5,Ch6,Ch7,Ch8,Ch9,Ch10,Ch11,Label
2039.447998046875,26150,1,1756.0,1763.0,1739.0,1765.0,1747.0,1813.0,1914.0,1741.0,99.39556121826172,4.922815322875977,20.075761795043945,Left
2041.447998046875,26150,1,1739.0,1747.0,1757.0,1819.0,1751.0,1780.0,1583.0,1740.0,99.39556121826172,4.922815322875977,20.075761795043945,Left
2043.447998046875,26150,1,1757.0,1765.0,1761.0,1741.0,1749.0,1630.0,1558.0,1750.0,99.39556121826172,4.922815322875977,20.075761795043945,Left
2045.447998046875,26150,1,1758.0,1759.0,1763.0,1752.0,1753.0,1459.0,1671.0,1754.0,99.39556121826172,4.922815322875977,20.075761795043945,Left
2047.447998046875,26150,1,1758.0,1757.0,1765.0,1756.0,1751.0,1407.0,1686.0,1762.0,99.39556121826172,4.922815322875977,20.075761795043945,Left
2039.89404296875,26151,1,1757.0,1759.0,1749.0,1775.0,1749.0,1478.0,1911.0,1758.0,99.39556121826172,4.922815322875977,20.075761795043945,Left
2041.89404296875,26151,1,1755.0,1755.0,1739.0,1741.0,1752.0,1519.0,1640.0,1740.0,99.39556121826172,4.922815322875977,20.075761795043945,Left
2043.89404296875,26151,1,1757.0,1766.0,1721.0,1755.0,1748.0,1446.0,1695.0,1726.0,99.39556121826172,4.922815322875977,20.075761795043945,Left
2045.89404296875,26151,1,1756.0,1765.0,1771.0,1742.0,1747.0,1420.0,1759.0,1746.0,99.39556121826172,4.922815322875977,20.075761795043945,Left
2047.89404296875,26151,1,1756.0,1765.0,1805.0,1758.0,1749.0,1557.0,1772.0,1751.0,97.61111450195312,5.969847679138184,22.374900817871094,Left
2044.38525390625,26152,1,1757.0,1756.0,1787.0,1759.0,1754.0,1695.0,1831.0,1749.0,97.61111450195312,5.969847679138184,22.374900817871094,Left
2046.38525390625,26152,1,1756.0,1763.0,1757.0,1758.0,1753.0,1802.0,1671.0,1750.0,97.61111450195312,5.969847679138184,22.374900817871094,Left
2048.38525390625,26152,1,1755.0,1761.0,1693.0,1747.0,1750.0,1927.0,1687.0,1753.0,97.61111450195312,5.969847679138184,22.374900817871094,Left
2050.38525390625,26152,1,1761.0,1758.0,1683.0,1737.0,1749.0,2008.0,1631.0,1742.0,97.61111450195312,5.969847679138184,22.374900817871094,Left
2052.38525390625,26152,1,1756.0,1757.0,1786.0,1761.0,1747.0,2003.0,1768.0,1739.0,97.61111450195312,5.969847679138184,22.374900817871094,Left
2054.172119140625,26153,1,1755.0,1752.0,1863.0,1763.0,1747.0,2283.0,1833.0,1736.0,97.61111450195312,5.969847679138184,22.374900817871094,Left
2056.172119140625,26153,1,1758.0,1757.0,1783.0,1758.0,1749.0,2085.0,1747.0,1737.0,97.61111450195312,5.969847679138184,22.374900817871094,Left
2058.172119140625,26153,1,1759.0,1758.0,1757.0,1757.0,1751.0,1983.0,1831.0,1757.0,97.61111450195312,5.969847679138184,22.374900817871094,Left
2060.172119140625,26153,1,1756.0,1757.0,1737.0,1747.0,1749.0,1983.0,1751.0,1741.0,97.61111450195312,5.969847679138184,22.374900817871094,Left
2062.172119140625,26153,1,1757.0,1764.0,1722.0,1755.0,1749.0,1798.0,1863.0,1736.0,97.61111450195312,5.969847679138184,22.374900817871094,Left
2064.70703125,26154,1,1759.0,1757.0,1764.0,1717.0,1748.0,1695.0,1882.0,1759.0,97.61111450195312,5.969847679138184,22.374900817871094,Left
2066.70703125,26154,1,1755.0,1759.0,1783.0,1771.0,1755.0,1775.0,1593.0,1747.0,97.61111450195312,5.969847679138184,22.374900817871094,Left
2068.70703125,26154,1,1759.0,1765.0,1765.0,1766.0,1756.0,1711.0,1768.0,1755.0,97.61111450195312,5.969847679138184,22.374900817871094,Left
2070.70703125,26154,1,1757.0,1757.0,1675.0,1755.0,1750.0,1801.0,1787.0,1752.0,97.61111450195312,5.969847679138184,22.374900817871094,Left
2072.70703125,26154,1,1757.0,1757.0,1719.0,1755.0,1752.0,2029.0,1811.0,1761.0,97.61111450195312,5.969847679138184,22.374900817871094,Left
2072.740966796875,26155,1,1757.0,1748.0,1767.0,1741.0,1751.0,1950.0,1711.0,1751.0,97.61111450195312,5.969847679138184,22.374900817871094,Left
2074.740966796875,26155,1,1759.0,1764.0,1749.0,1743.0,1749.0,1823.0,1631.0,1739.0,97.61111450195312,5.969847679138184,22.374900817871094,Left
2076.740966796875,26155,1,1757.0,1765.0,1769.0,1767.0,1749.0,1815.0,1875.0,1741.0,97.61111450195312,5.969847679138184,22.374900817871094,Left
2078.740966796875,26155,1,1759.0,1758.0,1775.0,1765.0,1753.0,1889.0,1901.0,1755.0,97.61111450195312,5.969847679138184,22.374900817871094,Left
2080.740966796875,26155,1,1755.0,1756.0,1775.0,1753.0,1749.0,1786.0,1853.0,1743.0,97.61111450195312,5.969847679138184,22.374900817871094,Left
2084.27001953125,26156,1,1757.0,1758.0,1759.0,1763.0,1751.0,1783.0,1775.0,1747.0,97.61111450195312,5.969847679138184,22.374900817871094,Left
2086.27001953125,26156,1,1757.0,1765.0,1766.0,1753.0,1752.0,1768.0,1791.0,1741.0,97.61111450195312,5.969847679138184,22.374900817871094,Left
2088.27001953125,26156,1,1758.0,1757.0,1754.0,1751.0,1751.0,1687.0,1879.0,1743.0,97.61111450195312,5.969847679138184,22.374900817871094,Left
2090.27001953125,26156,1,1759.0,1757.0,1753.0,1751.0,1750.0,1676.0,1912.0,1753.0,97.61111450195312,5.969847679138184,22.374900817871094,Left
2092.27001953125,26156,1,1757.0,1757.0,1757.0,1757.0,1753.0,1771.0,1899.0,1765.0,97.61111450195312,5.969847679138184,22.374900817871094,Left
2093.350830078125,26157,1,1753.0,1755.0,1757.0,1747.0,1752.0,1765.0,2031.0,1753.0,97.61111450195312,5.969847679138184,22.374900817871094,Left
2095.350830078125,26157,1,1758.0,1755.0,1753.0,1751.0,1752.0,1912.0,1519.0,1735.0,97.61111450195312,5.969847679138184,22.374900817871094,Left
2097.350830078125,26157,1,1758.0,1763.0,1755.0,1751.0,1749.0,1897.0,1663.0,1743.0,97.61111450195312,5.969847679138184,22.374900817871094,Left
2099.350830078125,26157,1,1756.0,1764.0,1747.0,1750.0,1755.0,1957.0,1765.0,1750.0,97.61111450195312,5.969847679138184,22.374900817871094,Left
2101.350830078125,26157,1,1759.0,1767.0,1752.0,1753.0,1751.0,1807.0,1881.0,1736.0,97.61111450195312,5.969847679138184,22.374900817871094,Left
2105.194091796875,26158,1,1756.0,1756.0,1755.0,1749.0,1747.0,1711.0,1821.0,1761.0,97.61111450195312,5.969847679138184,22.374900817871094,Left
2107.194091796875,26158,1,1757.0,1757.0,1781.0,1759.0,1751.0,1589.0,1863.0,1753.0,97.61111450195312,5.969847679138184,22.374900817871094,Left
2109.194091796875,26158,1,1757.0,1758.0,1781.0,1752.0,1749.0,1591.0,1817.0,1718.0,97.00348663330078,6.679084300994873,21.190227508544922,Left
2111.194091796875,26158,1,1759.0,1763.0,1743.0,1753.0,1751.0,1501.0,1821.0,1735.0,97.00348663330078,6.679084300994873,21.190227508544922,Left
2113.194091796875,26158,1,1757.0,1763.0,1735.0,1755.0,1752.0,1467.0,1873.0,1768.0,97.00348663330078,6.679084300994873,21.190227508544922,Left
2112.171142578125,26159,1,1757.0,1759.0,1746.0,1745.0,1748.0,1775.0,1753.0,1756.0,97.00348663330078,6.679084300994873,21.190227508544922,Left
2114.171142578125,26159,1,1757.0,1759.0,1739.0,1752.0,1751.0,1595.0,1625.0,1741.0,97.00348663330078,6.679084300994873,21.190227508544922,Left
2116.171142578125,26159,1,1759.0,1764.0,1743.0,1755.0,1749.0,1621.0,1740.0,1739.0,97.00348663330078,6.679084300994873,21.190227508544922,Left
2118.171142578125,26159,1,1759.0,1757.0,1750.0,1755.0,1749.0,1717.0,1741.0,1737.0,97.00348663330078,6.679084300994873,21.190227508544922,Left
2120.171142578125,26159,1,1757.0,1759.0,1769.0,1765.0,1751.0,1694.0,1753.0,1746.0,97.00348663330078,6.679084300994873,21.190227508544922,Left
2127.314208984375,26160,1,1757.0,1757.0,1745.0,1765.0,1751.0,1757.0,1755.0,1751.0,97.00348663330078,6.679084300994873,21.190227508544922,Left
2129.314208984375,26160,1,1762.0,1763.0,1767.0,1757.0,1751.0,1750.0,1688.0,1758.0,97.00348663330078,6.679084300994873,21.190227508544922,Left
2131.314208984375,26160,1,1757.0,1759.0,1781.0,1757.0,1753.0,1701.0,1754.0,1759.0,97.00348663330078,6.679084300994873,21.190227508544922,Left
2133.314208984375,26160,1,1757.0,1759.0,1747.0,1753.0,1752.0,1735.0,1734.0,1754.0,97.00348663330078,6.679084300994873,21.190227508544922,Left
2135.314208984375,26160,1,1757.0,1757.0,1736.0,1757.0,1751.0,1655.0,1764.0,1751.0,97.00348663330078,6.679084300994873,21.190227508544922,Left
2133.08203125,26161,1,1755.0,1757.0,1739.0,1775.0,1751.0,1631.0,1699.0,1747.0,97.00348663330078,6.679084300994873,21.190227508544922,Left
2135.08203125,26161,1,1758.0,1763.0,1741.0,1762.0,1747.0,1611.0,1657.0,1750.0,97.00348663330078,6.679084300994873,21.190227508544922,Left
2137.08203125,26161,1,1757.0,1765.0,1751.0,1746.0,1749.0,1583.0,1684.0,1737.0,97.00348663330078,6.679084300994873,21.190227508544922,Left
2139.08203125,26161,1,1759.0,1764.0,1767.0,1750.0,1751.0,1634.0,1850.0,1727.0,97.00348663330078,6.679084300994873,21.190227508544922,Left
2141.08203125,26161,1,1757.0,1763.0,1788.0,1757.0,1752.0,1495.0,1875.0,1747.0,97.00348663330078,6.679084300994873,21.190227508544922,Left
2143.10791015625,26162,1,1757.0,1762.0,1780.0,1763.0,1749.0,1544.0,1689.0,1759.0,97.00348663330078,6.679084300994873,21.190227508544922,Left
2145.10791015625,26162,1,1757.0,1759.0,1757.0,1757.0,1751.0,1513.0,1801.0,1751.0,97.00348663330078,6.679084300994873,21.190227508544922,Left
2147.10791015625,26162,1,1759.0,1763.0,1709.0,1748.0,1750.0,1574.0,1870.0,1748.0,97.00348663330078,6.679084300994873,21.190227508544922,Left
2149.10791015625,26162,1,1758.0,1763.0,1719.0,1751.0,1753.0,1638.0,1817.0,1747.0,97.00348663330078,6.679084300994873,21.190227508544922,Left
2151.10791015625,26162,1,1759.0,1763.0,1739.0,1759.0,1749.0,1703.0,1789.0,1764.0,97.00348663330078,6.679084300994873,21.190227508544922,Left
2152.301025390625,26163,1,1757.0,1755.0,1751.0,1775.0,1750.0,1559.0,1737.0,1747.0,97.00348663330078,6.679084300994873,21.190227508544922,Left
2154.301025390625,26163,1,1757.0,1761.0,1779.0,1759.0,1747.0,1689.0,1707.0,1743.0,97.00348663330078,6.679084300994873,21.190227508544922,Left
2156.301025390625,26163,1,1758.0,1763.0,1755.0,1757.0,1747.0,1681.0,1801.0,1747.0,97.00348663330078,6.679084300994873,21.190227508544922,Left
2158.301025390625,26163,1,1757.0,1757.0,1749.0,1753.0,1752.0,1835.0,1829.0,1725.0,97.00348663330078,6.679084300994873,21.190227508544922,Left
2160.301025390625,26163,1,1755.0,1757.0,1818.0,1755.0,1752.0,1853.0,1762.0,1721.0,97.00348663330078,6.679084300994873,21.190227508544922,Left
2163.18701171875,26164,1,1757.0,1757.0,1647.0,1755.0,1751.0,1659.0,1753.0,1755.0,97.00348663330078,6.679084300994873,21.190227508544922,Left
2165.18701171875,26164,1,1757.0,1765.0,1747.0,1763.0,1759.0,1787.0,1717.0,1773.0,97.00348663330078,6.679084300994873,21.190227508544922,Left
2167.18701171875,26164,1,1755.0,1763.0,1805.0,1767.0,1755.0,1913.0,1657.0,1756.0,97.00348663330078,6.679084300994873,21.190227508544922,Left
2169.18701171875,26164,1,1757.0,1763.0,1757.0,1757.0,1749.0,1733.0,1741.0,1748.0,97.00348663330078,6.679084300994873,21.190227508544922,Left
2171.18701171875,26164,1,1757.0,1762.0,1770.0,1769.0,1753.0,1907.0,1727.0,1755.0,97.11650848388672,7.962160587310791,23.2862491607666,Left
2173.255859375,26165,1,1758.0,1748.0,1765.0,1773.0,1751.0,1855.0,1641.0,1749.0,97.11650848388672,7.962160587310791,23.2862491607666,Left
2175.255859375,26165,1,1757.0,1765.0,1759.0,1746.0,1754.0,1951.0,1813.0,1743.0,97.11650848388672,7.962160587310791,23.2862491607666,Left
2177.255859375,26165,1,1755.0,1757.0,1721.0,1743.0,1752.0,1990.0,1775.0,1751.0,97.11650848388672,7.962160587310791,23.2862491607666,Left
2179.255859375,26165,1,1757.0,1755.0,1775.0,1762.0,1742.0,2036.0,1821.0,1739.0,97.11650848388672,7.962160587310791,23.2862491607666,Left
2181.255859375,26165,1,1756.0,1757.0,1802.0,1763.0,1749.0,1947.0,1887.0,1725.0,97.11650848388672,7.962160587310791,23.2862491607666,Left
2182.51708984375,26166,1,1759.0,1765.0,1739.0,1763.0,1749.0,2018.0,1725.0,1757.0,97.11650848388672,7.962160587310791,23.2862491607666,Left
2184.51708984375,26166,1,1757.0,1761.0,1740.0,1759.0,1751.0,1983.0,1813.0,1763.0,97.11650848388672,7.962160587310791,23.2862491607666,Left
2186.51708984375,26166,1,1757.0,1759.0,1749.0,1757.0,1754.0,1810.0,1771.0,1765.0,97.11650848388672,7.962160587310791,23.2862491607666,Left
2188.51708984375,26166,1,1757.0,1757.0,1755.0,1764.0,1752.0,1764.0,1863.0,1751.0,97.11650848388672,7.962160587310791,23.2862491607666,Left
2190.51708984375,26166,1,1759.0,1755.0,1751.0,1765.0,1753.0,1881.0,1925.0,1751.0,97.11650848388672,7.962160587310791,23.2862491607666,Left
2195.12109375,26167,1,1753.0,1758.0,1739.0,1778.0,1751.0,1829.0,1763.0,1740.0,97.11650848388672,7.962160587310791,23.2862491607666,Left
2197.12109375,26167,1,1756.0,1755.0,1759.0,1759.0,1745.0,1703.0,1749.0,1736.0,97.11650848388672,7.962160587310791,23.2862491607666,Left
2199.12109375,26167,1,1755.0,1758.0,1748.0,1757.0,1745.0,1606.0,1770.0,1748.0,97.11650848388672,7.962160587310791,23.2862491607666,Left
2201.12109375,26167,1,1757.0,1757.0,1727.0,1769.0,1749.0,1701.0,1708.0,1740.0,97.11650848388672,7.962160587310791,23.2862491607666,Left
2203.12109375,26167,1,1757.0,1763.0,1762.0,1765.0,1753.0,1703.0,1719.0,1743.0,97.11650848388672,7.962160587310791,23.2862491607666,Left
2202.904296875,26168,1,1755.0,1761.0,1749.0,1757.0,1751.0,1583.0,1816.0,1741.0,97.11650848388672,7.962160587310791,23.2862491607666,Left
2204.904296875,26168,1,1757.0,1759.0,1813.0,1753.0,1751.0,1648.0,1934.0,1763.0,97.11650848388672,7.962160587310791,23.2862491607666,Left
2206.904296875,26168,1,1757.0,1755.0,1805.0,1736.0,1749.0,1659.0,1655.0,1727.0,97.11650848388672,7.962160587310791,23.2862491607666,Left
2208.904296875,26168,1,1759.0,1763.0,1703.0,1751.0,1752.0,1448.0,1641.0,1727.0,97.11650848388672,7.962160587310791,23.2862491607666,Left
2210.904296875,26168,1,1758.0,1755.0,1663.0,1752.0,1753.0,1432.0,1676.0,1756.0,97.11650848388672,7.962160587310791,23.2862491607666,Left
2213.070068359375,26169,1,1757.0,1757.0,1736.0,1768.0,1751.0,1515.0,1627.0,1751.0,97.11650848388672,7.962160587310791,23.2862491607666,Left
2215.070068359375,26169,1,1757.0,1763.0,1781.0,1764.0,1755.0,1371.0,1785.0,1752.0,97.11650848388672,7.962160587310791,23.2862491607666,Left
2217.070068359375,26169,1,1757.0,1757.0,1819.0,1767.0,1748.0,1413.0,1735.0,1753.0,97.11650848388672,7.962160587310791,23.2862491607666,Left
2219.070068359375,26169,1,1757.0,1763.0,1771.0,1767.0,1751.0,1544.0,1746.0,1767.0,97.11650848388672,7.962160587310791,23.2862491607666,Left
2221.070068359375,26169,1,1757.0,1758.0,1736.0,1757.0,1750.0,1463.0,1775.0,1725.0,97.11650848388672,7.962160587310791,23.2862491607666,Left
2222.76513671875,26170,1,1757.0,1759.0,1719.0,1779.0,1749.0,1563.0,1865.0,1733.0,97.11650848388672,7.962160587310791,23.2862491607666,Left
2224.76513671875,26170,1,1759.0,1763.0,1752.0,1763.0,1753.0,1613.0,1865.0,1747.0,97.11650848388672,7.962160587310791,23.2862491607666,Left
2226.76513671875,26170,1,1757.0,1764.0,1779.0,1764.0,1759.0,1701.0,1743.0,1757.0,97.11650848388672,7.962160587310791,23.2862491607666,Left
2228.76513671875,26170,1,1757.0,1759.0,1784.0,1757.0,1751.0,1644.0,1692.0,1762.0,97.11650848388672,7.962160587310791,23.2862491607666,Left
2230.76513671875,26170,1,1757.0,1754.0,1629.0,1737.0,1747.0,1820.0,1735.0,1759.0,97.11650848388672,7.962160587310791,23.2862491607666,Left
2234.38916015625,26171,1,1755.0,1749.0,1817.0,1775.0,1749.0,1880.0,1607.0,1765.0,97.11650848388672,7.962160587310791,23.2862491607666,Left
2236.38916015625,26171,1,1757.0,1757.0,1881.0,1753.0,1749.0,1949.0,1673.0,1746.0,95.52251434326172,8.440298080444336,22.412322998046875,Left
2238.38916015625,26171,1,1757.0,1753.0,1711.0,1757.0,1747.0,1947.0,1721.0,1726.0,95.52251434326172,8.440298080444336,22.412322998046875,Left
2240.38916015625,26171,1,1755.0,1759.0,1725.0,1757.0,1748.0,1999.0,1723.0,1743.0,95.52251434326172,8.440298080444336,22.412322998046875,Left
2242.38916015625,26171,1,1755.0,1763.0,1764.0,1764.0,1749.0,1945.0,1703.0,1737.0,95.52251434326172,8.440298080444336,22.412322998046875,Left
2242.93994140625,26172,1,1755.0,1757.0,1741.0,1775.0,1747.0,1868.0,1748.0,1747.0,95.52251434326172,8.440298080444336,22.412322998046875,Left
2244.93994140625,26172,1,1759.0,1763.0,1723.0,1758.0,1749.0,1967.0,1821.0,1752.0,95.52251434326172,8.440298080444336,22.412322998046875,Left
2246.93994140625,26172,1,1757.0,1763.0,1741.0,1755.0,1753.0,1906.0,1771.0,1741.0,95.52251434326172,8.440298080444336,22.412322998046875,Left
2248.93994140625,26172,1,1757.0,1763.0,1789.0,1757.0,1750.0,1883.0,1734.0,1749.0,95.52251434326172,8.440298080444336,22.412322998046875,Left
2250.93994140625,26172,1,1759.0,1763.0,1753.0,1766.0,1749.0,1981.0,1752.0,1763.0,95.52251434326172,8.440298080444336,22.412322998046875,Left
2252.806884765625,26173,1,1755.0,1759.0,1748.0,1804.0,1752.0,2019.0,1631.0,1763.0,95.52251434326172,8.440298080444336,22.412322998046875,Left
2254.806884765625,26173,1,1759.0,1763.0,1753.0,1751.0,1753.0,1981.0,1611.0,1745.0,95.52251434326172,8.440298080444336,22.412322998046875,Left
2256.806884765625,26173,1,1756.0,1755.0,1786.0,1749.0,1747.0,1880.0,1707.0,1741.0,95.52251434326172,8.440298080444336,22.412322998046875,Left
2258.806884765625,26173,1,1755.0,1755.0,1775.0,1743.0,1749.0,1801.0,1669.0,1742.0,95.52251434326172,8.440298080444336,22.412322998046875,Left
2260.806884765625,26173,1,1759.0,1763.0,1774.0,1757.0,1749.0,1709.0,1669.0,1741.0,95.52251434326172,8.440298080444336,22.412322998046875,Left
2263.759765625,26174,1,1756.0,1762.0,1781.0,1763.0,1751.0,1638.0,1577.0,1757.0,95.52251434326172,8.440298080444336,22.412322998046875,Left
2265.759765625,26174,1,1759.0,1764.0,1767.0,1766.0,1750.0,1835.0,1721.0,1749.0,95.52251434326172,8.440298080444336,22.412322998046875,Left
2267.759765625,26174,1,1756.0,1762.0,1726.0,1755.0,1751.0,1799.0,1765.0,1741.0,95.52251434326172,8.440298080444336,22.412322998046875,Left
2269.759765625,26174,1,1759.0,1762.0,1715.0,1753.0,1753.0,1753.0,1813.0,1740.0,95.52251434326172,8.440298080444336,22.412322998046875,Left
2271.759765625,26174,1,1757.0,1757.0,1671.0,1741.0,1745.0,1797.0,1817.0,1735.0,95.52251434326172,8.440298080444336,22.412322998046875,Left
2304.94677734375,26175,1,1755.0,1748.0,1703.0,1741.0,1737.0,1814.0,1851.0,1767.0,95.52251434326172,8.440298080444336,22.412322998046875,Left
2306.94677734375,26175,1,1757.0,1757.0,1861.0,1753.0,1753.0,1871.0,1810.0,1755.0,95.52251434326172,8.440298080444336,22.412322998046875,Left
2308.94677734375,26175,1,1757.0,1759.0,1812.0,1752.0,1752.0,1737.0,1813.0,1747.0,95.52251434326172,8.440298080444336,22.412322998046875,Left
2310.94677734375,26175,1,1757.0,1763.0,1771.0,1757.0,1753.0,1803.0,1900.0,1741.0,95.52251434326172,8.440298080444336,22.412322998046875,Left
2312.94677734375,26175,1,1756.0,1767.0,1751.0,1755.0,1756.0,1797.0,1960.0,1727.0,95.52251434326172,8.440298080444336,22.412322998046875,Left
2305.781982421875,26176,1,1756.0,1744.0,1739.0,1812.0,1755.0,1753.0,1909.0,1759.0,95.52251434326172,8.440298080444336,22.412322998046875,Left
2307.781982421875,26176,1,1757.0,1762.0,1735.0,1749.0,1748.0,1757.0,1818.0,1753.0,95.52251434326172,8.440298080444336,22.412322998046875,Left
2309.781982421875,26176,1,1757.0,1757.0,1789.0,1749.0,1748.0,1560.0,1848.0,1749.0,95.52251434326172,8.440298080444336,22.412322998046875,Left
2311.781982421875,26176,1,1756.0,1757.0,1801.0,1753.0,1743.0,1605.0,1768.0,1753.0,95.52251434326172,8.440298080444336,22.412322998046875,Left
2313.781982421875,26176,1,1757.0,1757.0,1705.0,1755.0,1751.0,1447.0,1791.0,1757.0,95.52251434326172,8.440298080444336,22.412322998046875,Left
2306.232177734375,26177,1,1755.0,1759.0,1763.0,1758.0,1747.0,1685.0,1725.0,1753.0,95.52251434326172,8.440298080444336,22.412322998046875,Left
2308.232177734375,26177,1,1757.0,1757.0,1736.0,1743.0,1746.0,1644.0,2008.0,1725.0,95.52251434326172,8.440298080444336,22.412322998046875,Left
2310.232177734375,26177,1,1757.0,1762.0,1679.0,1747.0,1753.0,1687.0,1799.0,1745.0,95.52251434326172,8.440298080444336,22.412322998046875,Left
2312.232177734375,26177,1,1755.0,1758.0,1755.0,1754.0,1749.0,1723.0,1827.0,1751.0,95.52251434326172,8.440298080444336,22.412322998046875,Left
2314.232177734375,26177,1,1757.0,1759.0,1755.0,1747.0,1741.0,1589.0,1769.0,1735.0,94.07717895507812,9.569021224975586,16.428850173950195,Left
2306.697998046875,26178,1,1755.0,1758.0,1764.0,1781.0,1745.0,1673.0,1705.0,1748.0,94.07717895507812,9.569021224975586,16.428850173950195,Left
2308.697998046875,26178,1,1757.0,1757.0,1746.0,1757.0,1753.0,1548.0,1741.0,1738.0,94.07717895507812,9.569021224975586,16.428850173950195,Left
2310.697998046875,26178,1,1757.0,1757.0,1721.0,1747.0,1751.0,1607.0,1781.0,1753.0,94.07717895507812,9.569021224975586,16.428850173950195,Left
2312.697998046875,26178,1,1757.0,1763.0,1767.0,1749.0,1750.0,1748.0,1714.0,1759.0,94.07717895507812,9.569021224975586,16.428850173950195,Left
2314.697998046875,26178,1,1755.0,1755.0,1791.0,1750.0,1749.0,1718.0,1676.0,1756.0,94.07717895507812,9.569021224975586,16.428850173950195,Left
2315.34912109375,26179,1,1753.0,1755.0,1815.0,1779.0,1749.0,1822.0,1611.0,1753.0,94.07717895507812,9.569021224975586,16.428850173950195,Left
2317.34912109375,26179,1,1758.0,1759.0,1809.0,1757.0,1755.0,1741.0,1643.0,1758.0,94.07717895507812,9.569021224975586,16.428850173950195,Left
2319.34912109375,26179,1,1755.0,1763.0,1736.0,1767.0,1752.0,1898.0,1691.0,1749.0,94.07717895507812,9.569021224975586,16.428850173950195,Left
2321.34912109375,26179,1,1755.0,1759.0,1741.0,1764.0,1749.0,1901.0,1761.0,1747.0,94.07717895507812,9.569021224975586,16.428850173950195,Left
2323.34912109375,26179,1,1757.0,1757.0,1771.0,1762.0,1749.0,1757.0,1819.0,1739.0,94.07717895507812,9.569021224975586,16.428850173950195,Left
2322.972900390625,26180,1,1755.0,1757.0,1733.0,1753.0,1749.0,1819.0,1845.0,1745.0,94.07717895507812,9.569021224975586,16.428850173950195,Left
2324.972900390625,26180,1,1757.0,1757.0,1721.0,1752.0,1749.0,1844.0,1803.0,1735.0,94.07717895507812,9.569021224975586,16.428850173950195,Left
2326.972900390625,26180,1,1756.0,1753.0,1781.0,1754.0,1749.0,1937.0,1821.0,1740.0,94.07717895507812,9.569021224975586,16.428850173950195,Left
2328.972900390625,26180,1,1763.0,1764.0,1769.0,1757.0,1751.0,1892.0,1752.0,1749.0,94.07717895507812,9.569021224975586,16.428850173950195,Left
2330.972900390625,26180,1,1757.0,1757.0,1747.0,1753.0,1750.0,1951.0,1818.0,1764.0,94.07717895507812,9.569021224975586,16.428850173950195,Left
2336.718994140625,26181,1,1755.0,1757.0,1692.0,1799.0,1751.0,1799.0,1679.0,1755.0,94.07717895507812,9.569021224975586,16.428850173950195,Left
2338.718994140625,26181,1,1759.0,1762.0,1724.0,1753.0,1751.0,1740.0,1735.0,1757.0,94.07717895507812,9.569021224975586,16.428850173950195,Left
2340.718994140625,26181,1,1757.0,1756.0,1814.0,1751.0,1747.0,1737.0,1717.0,1758.0,94.07717895507812,9.569021224975586,16.428850173950195,Left
2342.718994140625,26181,1,1755.0,1757.0,1709.0,1755.0,1747.0,1785.0,1688.0,1735.0,94.07717895507812,9.569021224975586,16.428850173950195,Left
2344.718994140625,26181,1,1755.0,1765.0,1748.0,1767.0,1755.0,1683.0,1671.0,1707.0,94.07717895507812,9.569021224975586,16.428850173950195,Left
2343.041259765625,26182,1,1757.0,1762.0,1750.0,1763.0,1745.0,1747.0,1788.0,1741.0,94.07717895507812,9.569021224975586,16.428850173950195,Left
2345.041259765625,26182,1,1757.0,1758.0,1774.0,1734.0,1751.0,1748.0,1609.0,1755.0,94.07717895507812,9.569021224975586,16.428850173950195,Left
2347.041259765625,26182,1,1757.0,1756.0,1861.0,1755.0,1749.0,1746.0,1725.0,1764.0,94.07717895507812,9.569021224975586,16.428850173950195,Left
2349.041259765625,26182,1,1756.0,1755.0,1735.0,1759.0,1745.0,1751.0,1625.0,1721.0,94.07717895507812,9.569021224975586,16.428850173950195,Left
2351.041259765625,26182,1,1757.0,1753.0,1709.0,1765.0,1748.0,1939.0,1727.0,1743.0,94.07717895507812,9.569021224975586,16.428850173950195,Left
2353.2080078125,26183,1,1757.0,1757.0,1740.0,1741.0,1753.0,1695.0,1683.0,1775.0,94.07717895507812,9.569021224975586,16.428850173950195,Left
2355.2080078125,26183,1,1757.0,1769.0,1703.0,1765.0,1763.0,1931.0,1767.0,1776.0,94.07717895507812,9.569021224975586,16.428850173950195,Left
2357.2080078125,26183,1,1757.0,1767.0,1787.0,1755.0,1754.0,1929.0,1875.0,1756.0,94.07717895507812,9.569021224975586,16.428850173950195,Left
2359.2080078125,26183,1,1756.0,1758.0,1801.0,1753.0,1743.0,1901.0,1943.0,1753.0,94.07717895507812,9.569021224975586,16.428850173950195,Left
2361.2080078125,26183,1,1757.0,1763.0,1807.0,1757.0,1751.0,1843.0,1901.0,1743.0,94.07717895507812,9.569021224975586,16.428850173950195,Left
2364.990966796875,26184,1,1759.0,1762.0,1741.0,1781.0,1752.0,1852.0,1725.0,1753.0,94.07717895507812,9.569021224975586,16.428850173950195,Left
2366.990966796875,26184,1,1757.0,1757.0,1755.0,1755.0,1752.0,1849.0,1783.0,1735.0,94.07717895507812,9.569021224975586,16.428850173950195,Left
2368.990966796875,26184,1,1758.0,1763.0,1783.0,1757.0,1751.0,1811.0,1807.0,1749.0,95.35031127929688,8.153090476989746,19.022268295288086,Left
2370.990966796875,26184,1,1756.0,1765.0,1699.0,1753.0,1747.0,1782.0,1819.0,1741.0,95.35031127929688,8.153090476989746,19.022268295288086,Left
2372.990966796875,26184,1,1759.0,1759.0,1685.0,1755.0,1754.0,1819.0,1864.0,1749.0,95.35031127929688,8.153090476989746,19.022268295288086,Left
2374.6162109375,26185,1,1759.0,1753.0,1734.0,1749.0,1747.0,1717.0,1769.0,1728.0,95.35031127929688,8.153090476989746,19.022268295288086,Left
2376.6162109375,26185,1,1756.0,1753.0,1718.0,1740.0,1751.0,1791.0,1799.0,1747.0,95.35031127929688,8.153090476989746,19.022268295288086,Left
2378.6162109375,26185,1,1757.0,1763.0,1767.0,1755.0,1751.0,1650.0,1745.0,1741.0,95.35031127929688,8.153090476989746,19.022268295288086,Left
2380.6162109375,26185,1,1755.0,1753.0,1774.0,1755.0,1821.0,1687.0,1807.0,1740.0,95.35031127929688,8.153090476989746,19.022268295288086,Left
2382.6162109375,26185,1,1757.0,1758.0,1755.0,1742.0,1751.0,1620.0,1827.0,1733.0,95.35031127929688,8.153090476989746,19.022268295288086,Left
2401.40283203125,26186,1,1757.0,1759.0,1779.0,1764.0,1748.0,1583.0,1929.0,1751.0,95.35031127929688,8.153090476989746,19.022268295288086,Left
2403.40283203125,26186,1,1756.0,1755.0,1784.0,1747.0,1748.0,1545.0,1500.0,1757.0,95.35031127929688,8.153090476989746,19.022268295288086,Left
2405.40283203125,26186,1,1758.0,1758.0,1851.0,1765.0,1754.0,1576.0,1623.0,1756.0,95.35031127929688,8.153090476989746,19.022268295288086,Left
2407.40283203125,26186,1,1757.0,1759.0,1771.0,1765.0,1750.0,1643.0,1691.0,1743.0,95.35031127929688,8.153090476989746,19.022268295288086,Left
2409.40283203125,26186,1,1757.0,1753.0,1689.0,1758.0,1749.0,1677.0,1736.0,1747.0,95.35031127929688,8.153090476989746,19.022268295288086,Left
2401.920166015625,26187,1,1755.0,1764.0,1670.0,1769.0,1755.0,1635.0,1769.0,1756.0,95.35031127929688,8.153090476989746,19.022268295288086,Left
2403.920166015625,26187,1,1755.0,1757.0,1779.0,1747.0,1753.0,1705.0,1783.0,1755.0,95.35031127929688,8.153090476989746,19.022268295288086,Left
2405.920166015625,26187,1,1757.0,1758.0,1845.0,1723.0,1749.0,1805.0,1820.0,1770.0,95.35031127929688,8.153090476989746,19.022268295288086,Left
2407.920166015625,26187,1,1757.0,1755.0,1619.0,1737.0,1741.0,1669.0,1653.0,1723.0,95.35031127929688,8.153090476989746,19.022268295288086,Left
2409.920166015625,26187,1,1756.0,1759.0,1845.0,1755.0,1743.0,1659.0,1639.0,1708.0,95.35031127929688,8.153090476989746,19.022268295288086,Left
2404.718017578125,26188,1,1757.0,1769.0,1711.0,1778.0,1754.0,1587.0,1871.0,1763.0,95.35031127929688,8.153090476989746,19.022268295288086,Left
2406.718017578125,26188,1,1755.0,1765.0,1686.0,1758.0,1753.0,1563.0,1525.0,1749.0,95.35031127929688,8.153090476989746,19.022268295288086,Left
2408.718017578125,26188,1,1757.0,1761.0,1763.0,1721.0,1749.0,1516.0,1606.0,1725.0,95.35031127929688,8.153090476989746,19.022268295288086,Left
2410.718017578125,26188,1,1755.0,1753.0,1891.0,1722.0,1748.0,1661.0,1719.0,1723.0,95.35031127929688,8.153090476989746,19.022268295288086,Left
2412.718017578125,26188,1,1755.0,1751.0,1781.0,1765.0,1746.0,1655.0,1887.0,1766.0,95.35031127929688,8.153090476989746,19.022268295288086,Left
2417.2138671875,26189,1,1755.0,1756.0,1685.0,1741.0,1751.0,1677.0,1813.0,1755.0,95.35031127929688,8.153090476989746,19.022268295288086,Left
2419.2138671875,26189,1,1755.0,1763.0,1683.0,1785.0,1763.0,1514.0,1734.0,1736.0,95.35031127929688,8.153090476989746,19.022268295288086,Left
2421.2138671875,26189,1,1757.0,1759.0,1749.0,1747.0,1752.0,1597.0,1764.0,1754.0,95.35031127929688,8.153090476989746,19.022268295288086,Left
2423.2138671875,26189,1,1756.0,1763.0,1853.0,1759.0,1751.0,1623.0,1755.0,1769.0,95.35031127929688,8.153090476989746,19.022268295288086,Left
2425.2138671875,26189,1,1757.0,1765.0,1799.0,1753.0,1751.0,1553.0,1787.0,1719.0,95.35031127929688,8.153090476989746,19.022268295288086,Left
2426.08203125,26190,1,1755.0,1743.0,1749.0,1771.0,1753.0,1566.0,1742.0,1755.0,95.35031127929688,8.153090476989746,19.022268295288086,Left
2428.08203125,26190,1,1757.0,1758.0,1659.0,1747.0,1751.0,1621.0,1546.0,1739.0,95.35031127929688,8.153090476989746,19.022268295288086,Left
2430.08203125,26190,1,1757.0,1758.0,1797.0,1748.0,1749.0,1672.0,1657.0,1752.0,95.35031127929688,8.153090476989746,19.022268295288086,Left
2432.08203125,26190,1,1759.0,1759.0,1753.0,1742.0,1753.0,1699.0,1757.0,1742.0,95.35031127929688,8.153090476989746,19.022268295288086,Left
2434.08203125,26190,1,1757.0,1757.0,1719.0,1743.0,1748.0,1741.0,1789.0,1758.0,96.32472229003906,8.595797538757324,21.490232467651367,Left
2436.468017578125,26191,1,1758.0,1755.0,1775.0,1765.0,1751.0,1753.0,1805.0,1757.0,96.32472229003906,8.595797538757324,21.490232467651367,Left
2438.468017578125,26191,1,1756.0,1749.0,1813.0,1779.0,1751.0,1915.0,1759.0,1755.0,96.32472229003906,8.595797538757324,21.490232467651367,Left
2440.468017578125,26191,1,1759.0,1757.0,1757.0,1765.0,1753.0,2011.0,1821.0,1736.0,96.32472229003906,8.595797538757324,21.490232467651367,Left
2442.468017578125,26191,1,1757.0,1756.0,1677.0,1743.0,1755.0,2077.0,1932.0,1723.0,96.32472229003906,8.595797538757324,21.490232467651367,Left
2444.468017578125,26191,1,1756.0,1772.0,1751.0,1759.0,1751.0,2068.0,1943.0,1733.0,96.32472229003906,8.595797538757324,21.490232467651367,Left
2443.028076171875,26192,1,1757.0,1768.0,1766.0,1807.0,1751.0,2163.0,1809.0,1749.0,96.32472229003906,8.595797538757324,21.490232467651367,Left
2445.028076171875,26192,1,1757.0,1757.0,1790.0,1741.0,1755.0,2126.0,1621.0,1741.0,96.32472229003906,8.595797538757324,21.490232467651367,Left
2447.028076171875,26192,1,1757.0,1763.0,1844.0,1741.0,1751.0,1983.0,1615.0,1753.0,96.32472229003906,8.595797538757324,21.490232467651367,Left
2449.028076171875,26192,1,1757.0,1756.0,1759.0,1747.0,1746.0,1814.0,1713.0,1745.0,96.32472229003906,8.595797538757324,21.490232467651367,Left
2451.028076171875,26192,1,1755.0,1755.0,1625.0,1748.0,1749.0,1813.0,1809.0,1753.0,96.32472229003906,8.595797538757324,21.490232467651367,Left
2452.447021484375,26193,1,1755.0,1757.0,1799.0,1765.0,1749.0,1839.0,1775.0,1755.0,96.32472229003906,8.595797538757324,21.490232467651367,Left
2454.447021484375,26193,1,1757.0,1756.0,1749.0,1763.0,1749.0,1979.0,1804.0,1720.0,96.32472229003906,8.595797538757324,21.490232467651367,Left
2456.447021484375,26193,1,1756.0,1763.0,1686.0,1765.0,1751.0,1790.0,1742.0,1733.0,96.32472229003906,8.595797538757324,21.490232467651367,Left
2458.447021484375,26193,1,1756.0,1755.0,1773.0,1757.0,1742.0,1877.0,1887.0,1753.0,96.32472229003906,8.595797538757324,21.490232467651367,Left
2460.447021484375,26193,1,1755.0,1762.0,1781.0,1768.0,1750.0,1933.0,1904.0,1754.0,96.32472229003906,8.595797538757324,21.490232467651367,Left
2492.805908203125,26194,1,1756.0,1751.0,1741.0,1763.0,1749.0,1849.0,1901.0,1748.0,96.32472229003906,8.595797538757324,21.490232467651367,Left
2494.805908203125,26194,1,1759.0,1763.0,1758.0,1743.0,1757.0,1768.0,1893.0,1742.0,96.32472229003906,8.595797538757324,21.490232467651367,Left
2496.805908203125,26194,1,1757.0,1755.0,1739.0,1740.0,1752.0,1892.0,1783.0,1743.0,96.32472229003906,8.595797538757324,21.490232467651367,Left
2498.805908203125,26194,1,1758.0,1757.0,1773.0,1766.0,1755.0,1899.0,1767.0,1755.0,96.32472229003906,8.595797538757324,21.490232467651367,Left
2500.805908203125,26194,1,1756.0,1759.0,1821.0,1772.0,1747.0,1863.0,1709.0,1751.0,96.32472229003906,8.595797538757324,21.490232467651367,Left
2493.337890625,26195,1,1755.0,1739.0,1803.0,1753.0,1746.0,1803.0,1767.0,1751.0,96.32472229003906,8.595797538757324,21.490232467651367,Left
2495.337890625,26195,1,1745.0,1752.0,1749.0,1783.0,1748.0,1967.0,1639.0,1746.0,96.32472229003906,8.595797538757324,21.490232467651367,Left
2497.337890625,26195,1,1757.0,1758.0,1811.0,1769.0,1749.0,1867.0,1709.0,1753.0,96.32472229003906,8.595797538757324,21.490232467651367,Left
2499.337890625,26195,1,1757.0,1763.0,1635.0,1763.0,1749.0,1493.0,1715.0,1740.0,96.32472229003906,8.595797538757324,21.490232467651367,Left
2501.337890625,26195,1,1756.0,1756.0,1645.0,1739.0,1750.0,1707.0,1721.0,1738.0,96.32472229003906,8.595797538757324,21.490232467651367,Left
2493.840087890625,26196,1,1755.0,1756.0,1768.0,1735.0,1746.0,1943.0,1971.0,1741.0,96.32472229003906,8.595797538757324,21.490232467651367,Left
2495.840087890625,26196,1,1757.0,1759.0,1909.0,1763.0,1751.0,2057.0,1623.0,1751.0,96.32472229003906,8.595797538757324,21.490232467651367,Left
2497.840087890625,26196,1,1757.0,1759.0,1897.0,1767.0,1749.0,2002.0,1723.0,1758.0,96.32472229003906,8.595797538757324,21.490232467651367,Left
2499.840087890625,26196,1,1759.0,1762.0,1658.0,1759.0,1751.0,1977.0,1767.0,1734.0,96.32472229003906,8.595797538757324,21.490232467651367,Left
2501.840087890625,26196,1,1757.0,1763.0,1691.0,1759.0,1752.0,2109.0,1739.0,1756.0,96.32472229003906,8.595797538757324,21.490232467651367,Left
2494.1298828125,26197,1,1756.0,1741.0,1722.0,1750.0,1750.0,1973.0,1579.0,1761.0,96.32472229003906,8.595797538757324,21.490232467651367,Left
2496.1298828125,26197,1,1757.0,1757.0,1745.0,1753.0,1751.0,1657.0,1653.0,1740.0,96.32472229003906,8.595797538757324,21.490232467651367,Left
2498.1298828125,26197,1,1757.0,1751.0,1823.0,1751.0,1749.0,1623.0,1579.0,1735.0,95.7161636352539,8.511215209960938,20.388729095458984,Left
2500.1298828125,26197,1,1757.0,1768.0,1655.0,1755.0,1753.0,1455.0,1637.0,1737.0,95.7161636352539,8.511215209960938,20.388729095458984,Left
2502.1298828125,26197,1,1756.0,1763.0,1757.0,1741.0,1751.0,1605.0,1805.0,1733.0,95.7161636352539,8.511215209960938,20.388729095458984,Left
2507.608154296875,26198,1,1757.0,1763.0,1755.0,1743.0,1749.0,1447.0,1877.0,1735.0,95.7161636352539,8.511215209960938,20.388729095458984,Left
2509.608154296875,26198,1,1757.0,1755.0,1879.0,1765.0,1747.0,1605.0,1899.0,1756.0,95.7161636352539,8.511215209960938,20.388729095458984,Left
2511.608154296875,26198,1,1763.0,1760.0,1779.0,1758.0,1747.0,1368.0,1883.0,1765.0,95.7161636352539,8.511215209960938,20.388729095458984,Left
2513.608154296875,26198,1,1757.0,1757.0,1716.0,1759.0,1748.0,1465.0,1846.0,1754.0,95.7161636352539,8.511215209960938,20.388729095458984,Left
2515.608154296875,26198,1,1758.0,1755.0,1709.0,1767.0,1757.0,1427.0,1897.0,1766.0,95.7161636352539,8.511215209960938,20.388729095458984,Left
2515.894287109375,26199,1,1755.0,1758.0,1736.0,1763.0,1749.0,1266.0,1974.0,1755.0,95.7161636352539,8.511215209960938,20.388729095458984,Left
2517.894287109375,26199,1,1755.0,1767.0,1787.0,1766.0,1754.0,1230.0,1800.0,1747.0,95.7161636352539,8.511215209960938,20.388729095458984,Left
2519.894287109375,26199,1,1756.0,1756.0,1853.0,1763.0,1750.0,1263.0,1756.0,1735.0,95.7161636352539,8.511215209960938,20.388729095458984,Left
2521.894287109375,26199,1,1757.0,1763.0,1733.0,1755.0,1753.0,1331.0,1762.0,1742.0,95.7161636352539,8.511215209960938,20.388729095458984,Left
2523.894287109375,26199,1,1758.0,1762.0,1706.0,1740.0,1749.0,1211.0,1734.0,1750.0,95.7161636352539,8.511215209960938,20.388729095458984,Left
2524.741943359375,26200,1,1757.0,1752.0,1839.0,1737.0,1742.0,1657.0,1509.0,1719.0,95.7161636352539,8.511215209960938,20.388729095458984,Left
2526.741943359375,26200,1,1757.0,1754.0,1789.0,1758.0,1747.0,1879.0,1403.0,1739.0,95.7161636352539,8.511215209960938,20.388729095458984,Left
2528.741943359375,26200,1,1757.0,1758.0,1719.0,1757.0,1755.0,2181.0,1548.0,1757.0,95.7161636352539,8.511215209960938,20.388729095458984,Left
2530.741943359375,26200,1,1758.0,1761.0,1695.0,1757.0,1755.0,1843.0,1707.0,1759.0,95.7161636352539,8.511215209960938,20.388729095458984,Left
2532.741943359375,26200,1,1755.0,1763.0,1775.0,1749.0,1749.0,1832.0,1764.0,1768.0,95.7161636352539,8.511215209960938,20.388729095458984,Left
2535.81494140625,26201,1,1757.0,1757.0,1807.0,1751.0,1753.0,1929.0,1855.0,1765.0,95.7161636352539,8.511215209960938,20.388729095458984,Left
2537.81494140625,26201,1,1759.0,1753.0,1783.0,1751.0,1749.0,2199.0,1615.0,1736.0,95.7161636352539,8.511215209960938,20.388729095458984,Left
2539.81494140625,26201,1,1757.0,1758.0,1735.0,1756.0,1750.0,2131.0,1703.0,1727.0,95.7161636352539,8.511215209960938,20.388729095458984,Left
2541.81494140625,26201,1,1756.0,1757.0,1718.0,1756.0,1740.0,1940.0,1855.0,1737.0,95.7161636352539,8.511215209960938,20.388729095458984,Left
2543.81494140625,26201,1,1759.0,1755.0,1783.0,1752.0,1747.0,1733.0,1831.0,1733.0,95.7161636352539,8.511215209960938,20.388729095458984,Left
2544.76025390625,26202,1,1756.0,1763.0,1656.0,1753.0,1749.0,1699.0,1861.0,1739.0,95.7161636352539,8.511215209960938,20.388729095458984,Left
2546.76025390625,26202,1,1757.0,1769.0,1775.0,1766.0,1751.0,1768.0,1659.0,1753.0,95.7161636352539,8.511215209960938,20.388729095458984,Left
2548.76025390625,26202,1,1757.0,1769.0,1788.0,1751.0,1749.0,1973.0,1719.0,1769.0,95.7161636352539,8.511215209960938,20.388729095458984,Left
2550.76025390625,26202,1,1756.0,1757.0,1778.0,1757.0,1757.0,1763.0,1838.0,1753.0,95.7161636352539,8.511215209960938,20.388729095458984,Left
2552.76025390625,26202,1,1759.0,1755.0,1737.0,1755.0,1751.0,1956.0,1911.0,1749.0,95.7161636352539,8.511215209960938,20.388729095458984,Left
2554.60693359375,26203,1,1753.0,1755.0,1741.0,1762.0,1751.0,2037.0,1961.0,1761.0,95.7161636352539,8.511215209960938,20.388729095458984,Left
2556.60693359375,26203,1,1755.0,1763.0,1707.0,1753.0,1749.0,2182.0,1709.0,1747.0,95.7161636352539,8.511215209960938,20.388729095458984,Left
2558.60693359375,26203,1,1758.0,1763.0,1782.0,1755.0,1754.0,2296.0,1686.0,1741.0,95.7161636352539,8.511215209960938,20.388729095458984,Left
2560.60693359375,26203,1,1757.0,1763.0,1708.0,1757.0,1756.0,2237.0,1671.0,1740.0,95.7161636352539,8.511215209960938,20.388729095458984,Left
2562.60693359375,26203,1,1761.0,1758.0,1791.0,1755.0,1749.0,1972.0,1727.0,1747.0,95.66138458251953,8.850907325744629,18.793251037597656,Left
2565.411865234375,26204,1,1757.0,1765.0,1837.0,1781.0,1749.0,1635.0,1823.0,1763.0,95.66138458251953,8.850907325744629,18.793251037597656,Left
2567.411865234375,26204,1,1754.0,1763.0,1705.0,1751.0,1753.0,1749.0,1580.0,1736.0,95.66138458251953,8.850907325744629,18.793251037597656,Left
2569.411865234375,26204,1,1757.0,1759.0,1752.0,1750.0,1750.0,1436.0,1683.0,1726.0,95.66138458251953,8.850907325744629,18.793251037597656,Left
2571.411865234375,26204,1,1757.0,1763.0,1764.0,1747.0,1749.0,1553.0,1761.0,1737.0,95.66138458251953,8.850907325744629,18.793251037597656,Left
2573.411865234375,26204,1,1759.0,1756.0,1750.0,1750.0,1751.0,1495.0,1846.0,1747.0,95.66138458251953,8.850907325744629,18.793251037597656,Left
2574.7001953125,26205,1,1757.0,1749.0,1726.0,1767.0,1751.0,1542.0,1893.0,1757.0,95.66138458251953,8.850907325744629,18.793251037597656,Left
2576.7001953125,26205,1,1757.0,1763.0,1741.0,1755.0,1751.0,1533.0,1646.0,1751.0,95.66138458251953,8.850907325744629,18.793251037597656,Left
2578.7001953125,26205,1,1757.0,1765.0,1783.0,1759.0,1753.0,1757.0,1781.0,1771.0,95.66138458251953,8.850907325744629,18.793251037597656,Left
2580.7001953125,26205,1,1758.0,1764.0,1717.0,1763.0,1752.0,1596.0,1817.0,1745.0,95.66138458251953,8.850907325744629,18.793251037597656,Left
2582.7001953125,26205,1,1757.0,1757.0,1687.0,1747.0,1742.0,1746.0,1769.0,1703.0,95.66138458251953,8.850907325744629,18.793251037597656,Left
2610.882080078125,26206,1,1755.0,1757.0,1789.0,1767.0,1750.0,1582.0,1798.0,1735.0,95.66138458251953,8.850907325744629,18.793251037597656,Left
2612.882080078125,26206,1,1759.0,1755.0,1851.0,1740.0,1750.0,1690.0,1733.0,1754.0,95.66138458251953,8.850907325744629,18.793251037597656,Left
2614.882080078125,26206,1,1757.0,1756.0,1769.0,1747.0,1747.0,1694.0,1771.0,1741.0,95.66138458251953,8.850907325744629,18.793251037597656,Left
2616.882080078125,26206,1,1757.0,1764.0,1813.0,1764.0,1749.0,1630.0,1775.0,1751.0,95.66138458251953,8.850907325744629,18.793251037597656,Left
2618.882080078125,26206,1,1762.0,1759.0,1753.0,1765.0,1749.0,1385.0,1933.0,1765.0,95.66138458251953,8.850907325744629,18.793251037597656,Left
2611.449951171875,26207,1,1754.0,1759.0,1757.0,1778.0,1754.0,1464.0,1752.0,1766.0,95.66138458251953,8.850907325744629,18.793251037597656,Left
2613.449951171875,26207,1,1758.0,1759.0,1739.0,1755.0,1752.0,1821.0,1661.0,1755.0,95.66138458251953,8.850907325744629,18.793251037597656,Left
2615.449951171875,26207,1,1756.0,1764.0,1755.0,1756.0,1751.0,2025.0,1719.0,1753.0,95.66138458251953,8.850907325744629,18.793251037597656,Left
2617.449951171875,26207,1,1757.0,1759.0,1743.0,1751.0,1719.0,2129.0,1811.0,1743.0,95.66138458251953,8.850907325744629,18.793251037597656,Left
2619.449951171875,26207,1,1759.0,1762.0,1733.0,1759.0,1752.0,1948.0,1827.0,1735.0,95.66138458251953,8.850907325744629,18.793251037597656,Left
2612.065185546875,26208,1,1757.0,1751.0,1779.0,1766.0,1749.0,1933.0,2109.0,1739.0,95.66138458251953,8.850907325744629,18.793251037597656,Left
2614.065185546875,26208,1,1755.0,1761.0,1769.0,1754.0,1755.0,1907.0,1838.0,1747.0,95.66138458251953,8.850907325744629,18.793251037597656,Left
2616.065185546875,26208,1,1756.0,1763.0,1785.0,1754.0,1752.0,1823.0,1837.0,1750.0,95.66138458251953,8.850907325744629,18.793251037597656,Left
2618.065185546875,26208,1,1757.0,1762.0,1727.0,1755.0,1749.0,1751.0,1711.0,1735.0,95.66138458251953,8.850907325744629,18.793251037597656,Left
2620.065185546875,26208,1,1757.0,1758.0,1692.0,1757.0,1749.0,1908.0,1683.0,1753.0,95.66138458251953,8.850907325744629,18.793251037597656,Left
2614.281005859375,26209,1,1757.0,1758.0,1763.0,1752.0,1758.0,1765.0,1655.0,1753.0,95.66138458251953,8.850907325744629,18.793251037597656,Left
2616.281005859375,26209,1,1757.0,1757.0,1669.0,1756.0,1753.0,1597.0,1917.0,1751.0,95.66138458251953,8.850907325744629,18.793251037597656,Left
2618.281005859375,26209,1,1757.0,1751.0,1755.0,1749.0,1721.0,1465.0,1558.0,1749.0,95.66138458251953,8.850907325744629,18.793251037597656,Left
2620.281005859375,26209,1,1757.0,1763.0,1807.0,1754.0,1747.0,1700.0,1615.0,1753.0,95.66138458251953,8.850907325744629,18.793251037597656,Left
2622.281005859375,26209,1,1759.0,1757.0,1824.0,1763.0,1753.0,1423.0,1699.0,1741.0,95.66138458251953,8.850907325744629,18.793251037597656,Left
2626.693115234375,26210,1,1756.0,1749.0,1759.0,1767.0,1757.0,1301.0,1809.0,1755.0,95.66138458251953,8.850907325744629,18.793251037597656,Left
2628.693115234375,26210,1,1757.0,1762.0,1742.0,1751.0,1751.0,1470.0,1627.0,1737.0,96.22798156738281,8.752902030944824,19.198406219482422,Left
2630.693115234375,26210,1,1755.0,1769.0,1672.0,1763.0,1754.0,1575.0,1715.0,1743.0,96.22798156738281,8.752902030944824,19.198406219482422,Left
2632.693115234375,26210,1,1761.0,1775.0,1768.0,1763.0,1762.0,1466.0,1837.0,1757.0,96.22798156738281,8.752902030944824,19.198406219482422,Left
2634.693115234375,26210,1,1762.0,1765.0,1763.0,1755.0,1749.0,1628.0,1727.0,1757.0,96.22798156738281,8.752902030944824,19.198406219482422,Left
2634.626220703125,26211,1,1755.0,1724.0,1943.0,1765.0,1747.0,1647.0,1619.0,1756.0,96.22798156738281,8.752902030944824,19.198406219482422,Left
2636.626220703125,26211,1,1756.0,1751.0,1763.0,1735.0,1742.0,1728.0,1571.0,1739.0,96.22798156738281,8.752902030944824,19.198406219482422,Left
2638.626220703125,26211,1,1759.0,1751.0,1583.0,1740.0,1747.0,1565.0,1818.0,1736.0,96.22798156738281,8.752902030944824,19.198406219482422,Left
2640.626220703125,26211,1,1757.0,1761.0,1687.0,1763.0,1752.0,1557.0,1961.0,1741.0,96.22798156738281,8.752902030944824,19.198406219482422,Left
2642.626220703125,26211,1,1759.0,1767.0,1767.0,1772.0,1754.0,1460.0,1914.0,1751.0,96.22798156738281,8.752902030944824,19.198406219482422,Left
2643.073974609375,26212,1,1757.0,1753.0,1789.0,1757.0,1752.0,1599.0,1926.0,1727.0,96.22798156738281,8.752902030944824,19.198406219482422,Left
2645.073974609375,26212,1,1759.0,1757.0,1816.0,1763.0,1748.0,1747.0,1959.0,1751.0,96.22798156738281,8.752902030944824,19.198406219482422,Left
2647.073974609375,26212,1,1759.0,1756.0,1700.0,1765.0,1749.0,1964.0,1913.0,1749.0,96.22798156738281,8.752902030944824,19.198406219482422,Left
2649.073974609375,26212,1,1757.0,1764.0,1718.0,1763.0,1747.0,1982.0,2021.0,1757.0,96.22798156738281,8.752902030944824,19.198406219482422,Left
2651.073974609375,26212,1,1759.0,1763.0,1768.0,1765.0,1755.0,1797.0,2055.0,1766.0,96.22798156738281,8.752902030944824,19.198406219482422,Left
2652.855224609375,26213,1,1758.0,1763.0,1728.0,1765.0,1751.0,1944.0,1781.0,1761.0,96.22798156738281,8.752902030944824,19.198406219482422,Left
2654.855224609375,26213,1,1757.0,1755.0,1743.0,1756.0,1751.0,1821.0,1879.0,1719.0,96.22798156738281,8.752902030944824,19.198406219482422,Left
2656.855224609375,26213,1,1758.0,1757.0,1743.0,1756.0,1745.0,1895.0,1779.0,1709.0,96.22798156738281,8.752902030944824,19.198406219482422,Left
2658.855224609375,26213,1,1759.0,1759.0,1911.0,1748.0,1743.0,1927.0,1821.0,1742.0,96.22798156738281,8.752902030944824,19.198406219482422,Left
2660.855224609375,26213,1,1757.0,1757.0,1689.0,1741.0,1751.0,1814.0,1855.0,1747.0,96.22798156738281,8.752902030944824,19.198406219482422,Left
2664.073974609375,26214,1,1758.0,1757.0,1725.0,1761.0,1751.0,1783.0,1834.0,1754.0,96.22798156738281,8.752902030944824,19.198406219482422,Left
2666.073974609375,26214,1,1757.0,1765.0,1755.0,1753.0,1755.0,1651.0,1851.0,1743.0,96.22798156738281,8.752902030944824,19.198406219482422,Left
2668.073974609375,26214,1,1759.0,1757.0,1757.0,1757.0,1749.0,1657.0,1886.0,1757.0,96.22798156738281,8.752902030944824,19.198406219482422,Left
2670.073974609375,26214,1,1758.0,1763.0,1725.0,1765.0,1754.0,1703.0,1893.0,1763.0,96.22798156738281,8.752902030944824,19.198406219482422,Left
2672.073974609375,26214,1,1757.0,1765.0,1749.0,1765.0,1753.0,1788.0,1853.0,1765.0,96.22798156738281,8.752902030944824,19.198406219482422,Left
2673.378173828125,26215,1,1755.0,1762.0,1674.0,1768.0,1749.0,1908.0,1742.0,1743.0,96.22798156738281,8.752902030944824,19.198406219482422,Left
2675.378173828125,26215,1,1763.0,1762.0,1804.0,1749.0,1751.0,1648.0,1757.0,1755.0,96.22798156738281,8.752902030944824,19.198406219482422,Left
2677.378173828125,26215,1,1757.0,1759.0,1865.0,1751.0,1749.0,1517.0,1755.0,1749.0,96.22798156738281,8.752902030944824,19.198406219482422,Left
2679.378173828125,26215,1,1755.0,1749.0,1880.0,1742.0,1742.0,1609.0,1643.0,1737.0,96.22798156738281,8.752902030944824,19.198406219482422,Left
2681.378173828125,26215,1,1757.0,1754.0,1636.0,1745.0,1752.0,1705.0,1721.0,1737.0,96.22798156738281,8.752902030944824,19.198406219482422,Left
2684.995849609375,26216,1,1756.0,1763.0,1613.0,1749.0,1751.0,1657.0,1700.0,1737.0,96.22798156738281,8.752902030944824,19.198406219482422,Left
2686.995849609375,26216,1,1759.0,1765.0,1805.0,1767.0,1751.0,1548.0,1596.0,1758.0,96.22798156738281,8.752902030944824,19.198406219482422,Left
2688.995849609375,26216,1,1757.0,1762.0,1842.0,1765.0,1750.0,1545.0,1607.0,1757.0,96.22798156738281,8.752902030944824,19.198406219482422,Left
2690.995849609375,26216,1,1758.0,1755.0,1757.0,1747.0,1747.0,1853.0,1677.0,1739.0,96.22798156738281,8.752902030944824,19.198406219482422,Left
2692.995849609375,26216,1,1755.0,1755.0,1769.0,1743.0,1751.0,1805.0,1690.0,1754.0,96.85647583007812,8.148595809936523,18.494131088256836,Left
2714.8837890625,26217,1,1757.0,1759.0,1798.0,1766.0,1753.0,1661.0,1827.0,1769.0,96.85647583007812,8.148595809936523,18.494131088256836,Left
2716.8837890625,26217,1,1756.0,1755.0,1709.0,1757.0,1737.0,1717.0,1631.0,1741.0,96.85647583007812,8.148595809936523,18.494131088256836,Left
2718.8837890625,26217,1,1756.0,1761.0,1704.0,1757.0,1753.0,1763.0,1727.0,1740.0,96.85647583007812,8.148595809936523,18.494131088256836,Left
2720.8837890625,26217,1,1759.0,1765.0,1765.0,1763.0,1758.0,1783.0,1797.0,1754.0,96.85647583007812,8.148595809936523,18.494131088256836,Left
2722.8837890625,26217,1,1758.0,1764.0,1791.0,1751.0,1752.0,1871.0,1871.0,1748.0,96.85647583007812,8.148595809936523,18.494131088256836,Left
2715.43310546875,26218,1,1755.0,1763.0,1621.0,1766.0,1752.0,1837.0,1819.0,1742.0,96.85647583007812,8.148595809936523,18.494131088256836,Left
2717.43310546875,26218,1,1757.0,1764.0,1741.0,1761.0,1757.0,1707.0,1765.0,1754.0,96.85647583007812,8.148595809936523,18.494131088256836,Left
2719.43310546875,26218,1,1759.0,1755.0,1819.0,1751.0,1747.0,1763.0,1771.0,1741.0,96.85647583007812,8.148595809936523,18.494131088256836,Left
2721.43310546875,26218,1,1759.0,1749.0,1758.0,1734.0,1725.0,1690.0,1791.0,1737.0,96.85647583007812,8.148595809936523,18.494131088256836,Left
2723.43310546875,26218,1,1758.0,1767.0,1803.0,1755.0,1765.0,1801.0,1735.0,1745.0,96.85647583007812,8.148595809936523,18.494131088256836,Left
2715.75,26219,1,1756.0,1749.0,1726.0,1767.0,1749.0,1786.0,1812.0,1756.0,96.85647583007812,8.148595809936523,18.494131088256836,Left
2717.75,26219,1,1759.0,1765.0,1781.0,1771.0,1751.0,1559.0,1589.0,1752.0,96.85647583007812,8.148595809936523,18.494131088256836,Left
2719.75,26219,1,1759.0,1767.0,1785.0,1764.0,1749.0,1503.0,1705.0,1767.0,96.85647583007812,8.148595809936523,18.494131088256836,Left
2721.75,26219,1,1757.0,1755.0,1708.0,1741.0,1746.0,1790.0,1758.0,1722.0,96.85647583007812,8.148595809936523,18.494131088256836,Left
2723.75,26219,1,1756.0,1766.0,1726.0,1743.0,1753.0,1643.0,1719.0,1717.0,96.85647583007812,8.148595809936523,18.494131088256836,Left
2841.028076171875,26220,1,1756.0,1753.0,1812.0,1754.0,1736.0,1463.0,1693.0,1757.0,96.85647583007812,8.148595809936523,18.494131088256836,Left
2843.028076171875,26220,1,1756.0,1762.0,1816.0,1756.0,1735.0,1702.0,1591.0,1751.0,96.85647583007812,8.148595809936523,18.494131088256836,Left
2845.028076171875,26220,1,1757.0,1764.0,1575.0,1763.0,1755.0,1779.0,1711.0,1737.0,96.85647583007812,8.148595809936523,18.494131088256836,Left
2847.028076171875,26220,1,1757.0,1759.0,1705.0,1767.0,1749.0,1901.0,1715.0,1755.0,96.85647583007812,8.148595809936523,18.494131088256836,Left
2849.028076171875,26220,1,1756.0,1765.0,1806.0,1763.0,1752.0,1963.0,1799.0,1763.0,96.85647583007812,8.148595809936523,18.494131088256836,Left
2841.455078125,26221,1,1755.0,1752.0,1863.0,1741.0,1746.0,1867.0,1835.0,1753.0,96.85647583007812,8.148595809936523,18.494131088256836,Left
2843.455078125,26221,1,1756.0,1752.0,1758.0,1741.0,1740.0,1850.0,1787.0,1737.0,96.85647583007812,8.148595809936523,18.494131088256836,Left
2845.455078125,26221,1,1756.0,1756.0,1735.0,1756.0,1748.0,1867.0,1705.0,1737.0,96.85647583007812,8.148595809936523,18.494131088256836,Left
2847.455078125,26221,1,1757.0,1763.0,1780.0,1769.0,1754.0,1876.0,1743.0,1753.0,96.85647583007812,8.148595809936523,18.494131088256836,Left
2849.455078125,26221,1,1755.0,1765.0,1789.0,1757.0,1751.0,1805.0,1813.0,1749.0,96.85647583007812,8.148595809936523,18.494131088256836,Left
2841.802978515625,26222,1,1757.0,1762.0,1804.0,1759.0,1751.0,1759.0,1710.0,1738.0,96.85647583007812,8.148595809936523,18.494131088256836,Left
2843.802978515625,26222,1,1757.0,1761.0,1764.0,1764.0,1751.0,1965.0,1791.0,1735.0,96.85647583007812,8.148595809936523,18.494131088256836,Left
2845.802978515625,26222,1,1759.0,1755.0,1693.0,1758.0,1753.0,1962.0,1782.0,1747.0,96.85647583007812,8.148595809936523,18.494131088256836,Left
2847.802978515625,26222,1,1758.0,1758.0,1733.0,1758.0,1750.0,2035.0,1763.0,1751.0,96.85647583007812,8.148595809936523,18.494131088256836,Left
2849.802978515625,26222,1,1755.0,1758.0,1737.0,1747.0,1748.0,2041.0,1887.0,1753.0,96.85647583007812,8.148595809936523,18.494131088256836,Left
2842.138916015625,26223,1,1755.0,1753.0,1725.0,1751.0,1749.0,2203.0,1911.0,1765.0,96.85647583007812,8.148595809936523,18.494131088256836,Left
2844.138916015625,26223,1,1757.0,1755.0,1686.0,1751.0,1741.0,2017.0,1709.0,1773.0,96.74217987060547,8.193459510803223,17.92442512512207,Left
2846.138916015625,26223,1,1757.0,1759.0,1757.0,1747.0,1756.0,1996.0,1653.0,1751.0,96.74217987060547,8.193459510803223,17.92442512512207,Left
2848.138916015625,26223,1,1755.0,1765.0,1753.0,1757.0,1751.0,2023.0,1806.0,1743.0,96.74217987060547,8.193459510803223,17.92442512512207,Left
2850.138916015625,26223,1,1757.0,1763.0,1721.0,1759.0,1747.0,1736.0,1801.0,1725.0,96.74217987060547,8.193459510803223,17.92442512512207,Left
2842.5439453125,26224,1,1755.0,1756.0,1750.0,1758.0,1749.0,1675.0,1915.0,1747.0,96.74217987060547,8.193459510803223,17.92442512512207,Left
2844.5439453125,26224,1,1753.0,1763.0,1839.0,1755.0,1743.0,1629.0,1611.0,1761.0,96.74217987060547,8.193459510803223,17.92442512512207,Left
2846.5439453125,26224,1,1756.0,1755.0,1955.0,1755.0,1749.0,1637.0,1575.0,1763.0,96.74217987060547,8.193459510803223,17.92442512512207,Left
2848.5439453125,26224,1,1759.0,1762.0,1678.0,1756.0,1751.0,1801.0,1691.0,1740.0,96.74217987060547,8.193459510803223,17.92442512512207,Left
2850.5439453125,26224,1,1757.0,1757.0,1705.0,1749.0,1759.0,1747.0,1817.0,1739.0,96.74217987060547,8.193459510803223,17.92442512512207,Left
2842.944091796875,26225,1,1755.0,1755.0,1674.0,1751.0,1749.0,1907.0,1759.0,1753.0,96.74217987060547,8.193459510803223,17.92442512512207,Left
2844.944091796875,26225,1,1757.0,1753.0,1785.0,1753.0,1741.0,1767.0,1785.0,1740.0,96.74217987060547,8.193459510803223,17.92442512512207,Left
2846.944091796875,26225,1,1757.0,1764.0,1771.0,1755.0,1749.0,1945.0,1871.0,1756.0,96.74217987060547,8.193459510803223,17.92442512512207,Left
2848.944091796875,26225,1,1758.0,1752.0,1735.0,1754.0,1748.0,1909.0,1939.0,1740.0,96.74217987060547,8.193459510803223,17.92442512512207,Left
2850.944091796875,26225,1,1759.0,1765.0,1801.0,1769.0,1751.0,2007.0,1939.0,1727.0,96.74217987060547,8.193459510803223,17.92442512512207,Left
2843.452880859375,26226,1,1757.0,1754.0,1673.0,1767.0,1750.0,2011.0,1759.0,1725.0,96.74217987060547,8.193459510803223,17.92442512512207,Left
2845.452880859375,26226,1,1755.0,1767.0,1791.0,1759.0,1751.0,1919.0,1703.0,1753.0,96.74217987060547,8.193459510803223,17.92442512512207,Left
2847.452880859375,26226,1,1756.0,1755.0,1783.0,1755.0,1752.0,1767.0,1654.0,1759.0,96.74217987060547,8.193459510803223,17.92442512512207,Left
2849.452880859375,26226,1,1758.0,1757.0,1743.0,1755.0,1749.0,1644.0,1695.0,1751.0,96.74217987060547,8.193459510803223,17.92442512512207,Left
2851.452880859375,26226,1,1761.0,1762.0,1723.0,1759.0,1751.0,1669.0,1723.0,1765.0,96.74217987060547,8.193459510803223,17.92442512512207,Left
2843.78515625,26227,1,1757.0,1758.0,1802.0,1773.0,1750.0,1659.0,1613.0,1769.0,96.74217987060547,8.193459510803223,17.92442512512207,Left
2845.78515625,26227,1,1757.0,1759.0,1831.0,1759.0,1750.0,1673.0,1733.0,1753.0,96.74217987060547,8.193459510803223,17.92442512512207,Left
2847.78515625,26227,1,1757.0,1765.0,1673.0,1742.0,1751.0,1568.0,1813.0,1739.0,96.74217987060547,8.193459510803223,17.92442512512207,Left
2849.78515625,26227,1,1758.0,1763.0,1773.0,1763.0,1748.0,1853.0,1853.0,1743.0,96.74217987060547,8.193459510803223,17.92442512512207,Left
2851.78515625,26227,1,1757.0,1756.0,1711.0,1753.0,1752.0,2071.0,1847.0,1740.0,96.74217987060547,8.193459510803223,17.92442512512207,Left
2844.11181640625,26228,1,1757.0,1757.0,1685.0,1743.0,1747.0,1961.0,1886.0,1725.0,96.74217987060547,8.193459510803223,17.92442512512207,Left
2846.11181640625,26228,1,1757.0,1763.0,1749.0,1755.0,1749.0,2111.0,1831.0,1754.0,96.74217987060547,8.193459510803223,17.92442512512207,Left
2848.11181640625,26228,1,1757.0,1759.0,1837.0,1757.0,1753.0,1785.0,1847.0,1756.0,96.74217987060547,8.193459510803223,17.92442512512207,Left
2850.11181640625,26228,1,1756.0,1759.0,1829.0,1771.0,1752.0,1869.0,1817.0,1754.0,96.74217987060547,8.193459510803223,17.92442512512207,Left
2852.11181640625,26228,1,1757.0,1757.0,1742.0,1764.0,1752.0,1761.0,1735.0,1747.0,96.74217987060547,8.193459510803223,17.92442512512207,Left
2844.440185546875,26229,1,1757.0,1756.0,1801.0,1750.0,1751.0,1863.0,1736.0,1755.0,96.74217987060547,8.193459510803223,17.92442512512207,Left
2846.440185546875,26229,1,1757.0,1757.0,1813.0,1751.0,1749.0,1531.0,1837.0,1747.0,96.74217987060547,8.193459510803223,17.92442512512207,Left
2848.440185546875,26229,1,1757.0,1756.0,1655.0,1763.0,1751.0,1460.0,1806.0,1737.0,96.74217987060547,8.193459510803223,17.92442512512207,Left
2850.440185546875,26229,1,1757.0,1759.0,1691.0,1755.0,1747.0,1673.0,1831.0,1741.0,96.74217987060547,8.193459510803223,17.92442512512207,Left
2852.440185546875,26229,1,1759.0,1755.0,1753.0,1753.0,1749.0,1595.0,1877.0,1747.0,96.70372009277344,8.4335298538208,17.657062530517578,Left
2844.76806640625,26230,1,1755.0,1759.0,1796.0,1751.0,1749.0,1699.0,1611.0,1747.0,96.70372009277344,8.4335298538208,17.657062530517578,Left
2846.76806640625,26230,1,1759.0,1764.0,1765.0,1758.0,1749.0,1671.0,1622.0,1753.0,96.70372009277344,8.4335298538208,17.657062530517578,Left
2848.76806640625,26230,1,1757.0,1763.0,1768.0,1757.0,1749.0,1655.0,1701.0,1755.0,96.70372009277344,8.4335298538208,17.657062530517578,Left
2850.76806640625,26230,1,1756.0,1766.0,1763.0,1767.0,1753.0,1531.0,1791.0,1757.0,96.70372009277344,8.4335298538208,17.657062530517578,Left
2852.76806640625,26230,1,1756.0,1763.0,1775.0,1768.0,1755.0,1710.0,1723.0,1763.0,96.70372009277344,8.4335298538208,17.657062530517578,Left
2845.097900390625,26231,1,1755.0,1763.0,1759.0,1765.0,1753.0,1736.0,1701.0,1763.0,96.70372009277344,8.4335298538208,17.657062530517578,Left
2847.097900390625,26231,1,1756.0,1757.0,1805.0,1754.0,1753.0,1726.0,1711.0,1749.0,96.70372009277344,8.4335298538208,17.657062530517578,Left
2849.097900390625,26231,1,1759.0,1755.0,1717.0,1752.0,1751.0,1725.0,1752.0,1716.0,96.70372009277344,8.4335298538208,17.657062530517578,Left
2851.097900390625,26231,1,1757.0,1755.0,1611.0,1753.0,1747.0,1523.0,1773.0,1745.0,96.70372009277344,8.4335298538208,17.657062530517578,Left
2853.097900390625,26231,1,1756.0,1757.0,1788.0,1758.0,1753.0,1597.0,1693.0,1739.0,96.70372009277344,8.4335298538208,17.657062530517578,Left
2845.840087890625,26232,1,1757.0,1759.0,1801.0,1755.0,1749.0,1525.0,1715.0,1727.0,96.70372009277344,8.4335298538208,17.657062530517578,Left
2847.840087890625,26232,1,1755.0,1757.0,1741.0,1754.0,1753.0,1389.0,1791.0,1755.0,96.70372009277344,8.4335298538208,17.657062530517578,Left
2849.840087890625,26232,1,1756.0,1759.0,1703.0,1747.0,1751.0,1469.0,1862.0,1764.0,96.70372009277344,8.4335298538208,17.657062530517578,Left
2851.840087890625,26232,1,1757.0,1756.0,1822.0,1765.0,1751.0,1455.0,1717.0,1755.0,96.70372009277344,8.4335298538208,17.657062530517578,Left
2853.840087890625,26232,1,1757.0,1758.0,1785.0,1755.0,1749.0,1364.0,1765.0,1737.0,96.70372009277344,8.4335298538208,17.657062530517578,Left
2852.578125,26233,1,1756.0,1743.0,1775.0,1765.0,1753.0,1663.0,1769.0,1758.0,96.70372009277344,8.4335298538208,17.657062530517578,Left
2854.578125,26233,1,1756.0,1763.0,1768.0,1759.0,1756.0,1637.0,1861.0,1752.0,96.70372009277344,8.4335298538208,17.657062530517578,Left
2856.578125,26233,1,1758.0,1758.0,1763.0,1765.0,1738.0,1919.0,1758.0,1749.0,96.70372009277344,8.4335298538208,17.657062530517578,Left
2858.578125,26233,1,1757.0,1763.0,1703.0,1757.0,1747.0,1967.0,1752.0,1743.0,96.70372009277344,8.4335298538208,17.657062530517578,Left
2860.578125,26233,1,1756.0,1763.0,1751.0,1755.0,1749.0,2044.0,1738.0,1725.0,96.70372009277344,8.4335298538208,17.657062530517578,Left
2863.60498046875,26234,1,1758.0,1757.0,1791.0,1759.0,1749.0,2008.0,1678.0,1743.0,96.70372009277344,8.4335298538208,17.657062530517578,Left
2865.60498046875,26234,1,1759.0,1764.0,1773.0,1753.0,1751.0,2137.0,1707.0,1757.0,96.70372009277344,8.4335298538208,17.657062530517578,Left
2867.60498046875,26234,1,1757.0,1763.0,1593.0,1751.0,1757.0,2037.0,1734.0,1739.0,96.70372009277344,8.4335298538208,17.657062530517578,Left
2869.60498046875,26234,1,1757.0,1767.0,1715.0,1769.0,1756.0,1829.0,1763.0,1755.0,96.70372009277344,8.4335298538208,17.657062530517578,Left
2871.60498046875,26234,1,1755.0,1755.0,1803.0,1763.0,1738.0,1800.0,1755.0,1755.0,96.70372009277344,8.4335298538208,17.657062530517578,Left
2872.427001953125,26235,1,1755.0,1753.0,1804.0,1752.0,1749.0,1773.0,1623.0,1747.0,96.70372009277344,8.4335298538208,17.657062530517578,Left
2874.427001953125,26235,1,1757.0,1752.0,1853.0,1759.0,1751.0,1884.0,1671.0,1757.0,96.70372009277344,8.4335298538208,17.657062530517578,Left
2876.427001953125,26235,1,1757.0,1763.0,1820.0,1749.0,1753.0,1955.0,1734.0,1753.0,96.70372009277344,8.4335298538208,17.657062530517578,Left
2878.427001953125,26235,1,1758.0,1765.0,1709.0,1749.0,1750.0,2075.0,1743.0,1741.0,96.70372009277344,8.4335298538208,17.657062530517578,Left
2880.427001953125,26235,1,1758.0,1755.0,1785.0,1768.0,1749.0,1967.0,1797.0,1751.0,96.70372009277344,8.4335298538208,17.657062530517578,Left
2882.506103515625,26236,1,1756.0,1756.0,1743.0,1769.0,1747.0,1895.0,1761.0,1733.0,96.70372009277344,8.4335298538208,17.657062530517578,Left
2884.506103515625,26236,1,1757.0,1756.0,1687.0,1738.0,1749.0,1817.0,1733.0,1725.0,96.57988739013672,8.556425094604492,16.058895111083984,Left
2886.506103515625,26236,1,1756.0,1756.0,1652.0,1751.0,1749.0,1621.0,1782.0,1741.0,96.57988739013672,8.556425094604492,16.058895111083984,Left
2888.506103515625,26236,1,1759.0,1771.0,1723.0,1755.0,1757.0,1685.0,1836.0,1747.0,96.57988739013672,8.556425094604492,16.058895111083984,Left
2890.506103515625,26236,1,1755.0,1771.0,1805.0,1756.0,1752.0,1523.0,1815.0,1757.0,96.57988739013672,8.556425094604492,16.058895111083984,Left
2895.170166015625,26237,1,1759.0,1753.0,1835.0,1772.0,1752.0,1556.0,1787.0,1756.0,96.57988739013672,8.556425094604492,16.058895111083984,Left
2897.170166015625,26237,1,1757.0,1752.0,1735.0,1756.0,1750.0,1676.0,1896.0,1755.0,96.57988739013672,8.556425094604492,16.058895111083984,Left
2899.170166015625,26237,1,1757.0,1759.0,1687.0,1759.0,1754.0,1711.0,1823.0,1759.0,96.57988739013672,8.556425094604492,16.058895111083984,Left
2901.170166015625,26237,1,1757.0,1759.0,1791.0,1759.0,1750.0,1614.0,1748.0,1747.0,96.57988739013672,8.556425094604492,16.058895111083984,Left
2903.170166015625,26237,1,1755.0,1757.0,1815.0,1758.0,1748.0,1652.0,1753.0,1767.0,96.57988739013672,8.556425094604492,16.058895111083984,Left
2902.865966796875,26238,1,1756.0,1757.0,1699.0,1765.0,1747.0,1634.0,1783.0,1734.0,96.57988739013672,8.556425094604492,16.058895111083984,Left
2904.865966796875,26238,1,1757.0,1759.0,1699.0,1757.0,1751.0,1439.0,1756.0,1723.0,96.57988739013672,8.556425094604492,16.058895111083984,Left
2906.865966796875,26238,1,1757.0,1759.0,1785.0,1755.0,1754.0,1509.0,1695.0,1737.0,96.57988739013672,8.556425094604492,16.058895111083984,Left
2908.865966796875,26238,1,1757.0,1755.0,1773.0,1747.0,1754.0,1477.0,1807.0,1739.0,96.57988739013672,8.556425094604492,16.058895111083984,Left
2910.865966796875,26238,1,1757.0,1755.0,1789.0,1757.0,1743.0,1591.0,1863.0,1751.0,96.57988739013672,8.556425094604492,16.058895111083984,Left
2913.330078125,26239,1,1757.0,1755.0,1692.0,1752.0,1749.0,1469.0,1689.0,1756.0,96.57988739013672,8.556425094604492,16.058895111083984,Left
2915.330078125,26239,1,1757.0,1757.0,1755.0,1750.0,1749.0,1468.0,1709.0,1751.0,96.57988739013672,8.556425094604492,16.058895111083984,Left
2917.330078125,26239,1,1757.0,1758.0,1814.0,1753.0,1751.0,1759.0,1727.0,1743.0,96.57988739013672,8.556425094604492,16.058895111083984,Left
2919.330078125,26239,1,1756.0,1757.0,1748.0,1765.0,1749.0,1608.0,1746.0,1743.0,96.57988739013672,8.556425094604492,16.058895111083984,Left
2921.330078125,26239,1,1755.0,1764.0,1733.0,1756.0,1749.0,1639.0,1688.0,1747.0,96.57988739013672,8.556425094604492,16.058895111083984,Left
2922.966064453125,26240,1,1756.0,1764.0,1715.0,1757.0,1753.0,1831.0,1677.0,1741.0,96.57988739013672,8.556425094604492,16.058895111083984,Left
2924.966064453125,26240,1,1755.0,1765.0,1769.0,1751.0,1753.0,1935.0,1583.0,1758.0,96.57988739013672,8.556425094604492,16.058895111083984,Left
2926.966064453125,26240,1,1755.0,1756.0,1767.0,1757.0,1753.0,1725.0,1631.0,1749.0,96.57988739013672,8.556425094604492,16.058895111083984,Left
2928.966064453125,26240,1,1757.0,1757.0,1839.0,1766.0,1740.0,1643.0,1713.0,1757.0,96.57988739013672,8.556425094604492,16.058895111083984,Left
2930.966064453125,26240,1,1757.0,1759.0,1751.0,1766.0,1753.0,1653.0,1805.0,1752.0,96.57988739013672,8.556425094604492,16.058895111083984,Left
2935.378173828125,26241,1,1757.0,1759.0,1737.0,1769.0,1751.0,1802.0,1819.0,1754.0,96.57988739013672,8.556425094604492,16.058895111083984,Left
2937.378173828125,26241,1,1757.0,1753.0,1739.0,1750.0,1749.0,1711.0,1769.0,1750.0,96.57988739013672,8.556425094604492,16.058895111083984,Left
2939.378173828125,26241,1,1757.0,1755.0,1753.0,1739.0,1747.0,1800.0,1816.0,1742.0,96.57988739013672,8.556425094604492,16.058895111083984,Left
2941.378173828125,26241,1,1758.0,1763.0,1683.0,1749.0,1751.0,2008.0,1855.0,1749.0,96.57988739013672,8.556425094604492,16.058895111083984,Left
2943.378173828125,26241,1,1759.0,1759.0,1855.0,1775.0,1752.0,1927.0,1879.0,1761.0,96.57988739013672,8.556425094604492,16.058895111083984,Left
2942.047119140625,26242,1,1757.0,1775.0,1776.0,1774.0,1759.0,1718.0,1735.0,1710.0,96.57988739013672,8.556425094604492,16.058895111083984,Left
2944.047119140625,26242,1,1757.0,1761.0,1624.0,1743.0,1749.0,1688.0,1727.0,1705.0,96.57988739013672,8.556425094604492,16.058895111083984,Left
2946.047119140625,26242,1,1757.0,1752.0,1687.0,1752.0,1720.0,1742.0,1720.0,1751.0,96.57988739013672,8.556425094604492,16.058895111083984,Left
2948.047119140625,26242,1,1757.0,1757.0,1847.0,1753.0,1751.0,1865.0,1821.0,1757.0,96.57988739013672,8.556425094604492,16.058895111083984,Left
2950.047119140625,26242,1,1759.0,1757.0,1691.0,1762.0,1755.0,1799.0,1845.0,1763.0,96.83269500732422,8.596108436584473,15.170881271362305,Left
2953.02734375,26243,1,1756.0,1763.0,1686.0,1771.0,1753.0,1875.0,1672.0,1763.0,96.83269500732422,8.596108436584473,15.170881271362305,Left
2955.02734375,26243,1,1756.0,1756.0,1725.0,1757.0,1751.0,1803.0,1718.0,1746.0,96.83269500732422,8.596108436584473,15.170881271362305,Left
2957.02734375,26243,1,1755.0,1753.0,1785.0,1757.0,1749.0,1769.0,1625.0,1749.0,96.83269500732422,8.596108436584473,15.170881271362305,Left
2959.02734375,26243,1,1759.0,1764.0,1849.0,1759.0,1757.0,1772.0,1715.0,1763.0,96.83269500732422,8.596108436584473,15.170881271362305,Left
2961.02734375,26243,1,1757.0,1758.0,1814.0,1757.0,1747.0,1944.0,1684.0,1741.0,96.83269500732422,8.596108436584473,15.170881271362305,Left
2963.304931640625,26244,1,1755.0,1759.0,1739.0,1775.0,1749.0,1811.0,1709.0,1737.0,96.83269500732422,8.596108436584473,15.170881271362305,Left
2965.304931640625,26244,1,1759.0,1765.0,1705.0,1768.0,1757.0,1709.0,1652.0,1751.0,96.83269500732422,8.596108436584473,15.170881271362305,Left
2967.304931640625,26244,1,1757.0,1765.0,1720.0,1771.0,1763.0,1997.0,1669.0,1753.0,96.83269500732422,8.596108436584473,15.170881271362305,Left
2969.304931640625,26244,1,1757.0,1759.0,1749.0,1751.0,1751.0,1866.0,1757.0,1750.0,96.83269500732422,8.596108436584473,15.170881271362305,Left
2971.304931640625,26244,1,1757.0,1752.0,1851.0,1747.0,1737.0,1741.0,1779.0,1739.0,96.83269500732422,8.596108436584473,15.170881271362305,Left
2973.04296875,26245,1,1755.0,1724.0,1741.0,1751.0,1747.0,1885.0,1740.0,1759.0,96.83269500732422,8.596108436584473,15.170881271362305,Left
2975.04296875,26245,1,1757.0,1755.0,1709.0,1748.0,1749.0,2029.0,1783.0,1747.0,96.83269500732422,8.596108436584473,15.170881271362305,Left
2977.04296875,26245,1,1757.0,1763.0,1723.0,1763.0,1749.0,2067.0,1790.0,1751.0,96.83269500732422,8.596108436584473,15.170881271362305,Left
2979.04296875,26245,1,1756.0,1759.0,1873.0,1763.0,1751.0,2021.0,1871.0,1765.0,96.83269500732422,8.596108436584473,15.170881271362305,Left
2981.04296875,26245,1,1757.0,1747.0,1763.0,1748.0,1739.0,1951.0,1880.0,1746.0,96.83269500732422,8.596108436584473,15.170881271362305,Left
2984.34912109375,26246,1,1757.0,1754.0,1615.0,1767.0,1751.0,1973.0,1801.0,1710.0,96.83269500732422,8.596108436584473,15.170881271362305,Left
2986.34912109375,26246,1,1757.0,1762.0,1672.0,1755.0,1755.0,1779.0,1781.0,1735.0,96.83269500732422,8.596108436584473,15.170881271362305,Left
2988.34912109375,26246,1,1757.0,1771.0,1741.0,1753.0,1757.0,2019.0,1789.0,1763.0,96.83269500732422,8.596108436584473,15.170881271362305,Left
2990.34912109375,26246,1,1759.0,1771.0,1815.0,1759.0,1753.0,1817.0,1819.0,1755.0,96.83269500732422,8.596108436584473,15.170881271362305,Left
2992.34912109375,26246,1,1759.0,1769.0,1925.0,1756.0,1755.0,1631.0,1846.0,1755.0,96.83269500732422,8.596108436584473,15.170881271362305,Left
2998.343017578125,26247,1,1758.0,1752.0,1775.0,1769.0,1749.0,1745.0,1959.0,1755.0,96.83269500732422,8.596108436584473,15.170881271362305,Left
3000.343017578125,26247,1,1756.0,1764.0,1595.0,1765.0,1751.0,1593.0,1623.0,1747.0,96.83269500732422,8.596108436584473,15.170881271362305,Left
3002.343017578125,26247,1,1757.0,1757.0,1657.0,1767.0,1746.0,1677.0,1709.0,1737.0,96.83269500732422,8.596108436584473,15.170881271362305,Left
3004.343017578125,26247,1,1755.0,1756.0,1759.0,1745.0,1747.0,1737.0,1845.0,1743.0,96.83269500732422,8.596108436584473,15.170881271362305,Left
3006.343017578125,26247,1,1756.0,1754.0,1944.0,1747.0,1756.0,1785.0,1789.0,1758.0,96.83269500732422,8.596108436584473,15.170881271362305,Left
3006.071044921875,26248,1,1757.0,1757.0,1742.0,1759.0,1747.0,1759.0,1701.0,1735.0,96.83269500732422,8.596108436584473,15.170881271362305,Left
3008.071044921875,26248,1,1756.0,1755.0,1737.0,1765.0,1725.0,1688.0,1589.0,1755.0,96.83269500732422,8.596108436584473,15.170881271362305,Left
3010.071044921875,26248,1,1759.0,1764.0,1763.0,1768.0,1757.0,1717.0,1644.0,1751.0,96.83269500732422,8.596108436584473,15.170881271362305,Left
3012.071044921875,26248,1,1759.0,1763.0,1717.0,1741.0,1752.0,1560.0,1759.0,1740.0,96.83269500732422,8.596108436584473,15.170881271362305,Left
3014.071044921875,26248,1,1759.0,1763.0,1700.0,1756.0,1754.0,1482.0,1769.0,1747.0,96.83269500732422,8.596108436584473,15.170881271362305,Left
3016.43701171875,26249,1,1757.0,1756.0,1645.0,1757.0,1746.0,1577.0,1762.0,1755.0,96.83269500732422,8.596108436584473,15.170881271362305,Left
3018.43701171875,26249,1,1757.0,1751.0,1775.0,1764.0,1750.0,1591.0,1636.0,1747.0,96.81507873535156,8.920775413513184,13.624740600585938,Left
3020.43701171875,26249,1,1759.0,1767.0,1831.0,1772.0,1767.0,1596.0,1695.0,1749.0,96.81507873535156,8.920775413513184,13.624740600585938,Left
3022.43701171875,26249,1,1759.0,1762.0,1735.0,1754.0,1758.0,1612.0,1645.0,1747.0,96.81507873535156,8.920775413513184,13.624740600585938,Left
3024.43701171875,26249,1,1758.0,1763.0,1703.0,1757.0,1738.0,1493.0,1703.0,1755.0,96.81507873535156,8.920775413513184,13.624740600585938,Left
3026.050048828125,26250,1,1756.0,1759.0,1769.0,1749.0,1763.0,1519.0,1726.0,1736.0,96.81507873535156,8.920775413513184,13.624740600585938,Left
3028.050048828125,26250,1,1757.0,1763.0,1764.0,1773.0,1753.0,1565.0,1705.0,1774.0,96.81507873535156,8.920775413513184,13.624740600585938,Left
3030.050048828125,26250,1,1755.0,1767.0,1769.0,1765.0,1753.0,1553.0,1620.0,1749.0,96.81507873535156,8.920775413513184,13.624740600585938,Left
3032.050048828125,26250,1,1759.0,1767.0,1847.0,1737.0,1747.0,1747.0,1816.0,1749.0,96.81507873535156,8.920775413513184,13.624740600585938,Left
3034.050048828125,26250,1,1757.0,1749.0,1835.0,1695.0,1733.0,1756.0,1821.0,1707.0,96.81507873535156,8.920775413513184,13.624740600585938,Left
3035.804931640625,26251,1,1757.0,1749.0,1671.0,1769.0,1742.0,1820.0,1824.0,1747.0,96.81507873535156,8.920775413513184,13.624740600585938,Left
3037.804931640625,26251,1,1757.0,1767.0,1690.0,1751.0,1763.0,1805.0,1619.0,1751.0,96.81507873535156,8.920775413513184,13.624740600585938,Left
3039.804931640625,26251,1,1757.0,1763.0,1707.0,1751.0,1755.0,1797.0,1625.0,1775.0,96.81507873535156,8.920775413513184,13.624740600585938,Left
3041.804931640625,26251,1,1755.0,1765.0,1807.0,1757.0,1752.0,1741.0,1721.0,1757.0,96.81507873535156,8.920775413513184,13.624740600585938,Left
3043.804931640625,26251,1,1757.0,1742.0,1877.0,1737.0,1726.0,1881.0,1833.0,1710.0,96.81507873535156,8.920775413513184,13.624740600585938,Left
3044.489990234375,26252,1,1756.0,1750.0,1695.0,1751.0,1747.0,1677.0,1822.0,1720.0,96.81507873535156,8.920775413513184,13.624740600585938,Left
3046.489990234375,26252,1,1757.0,1769.0,1827.0,1783.0,1758.0,1533.0,1755.0,1762.0,96.81507873535156,8.920775413513184,13.624740600585938,Left
3048.489990234375,26252,1,1759.0,1771.0,1528.0,1755.0,1755.0,1493.0,1935.0,1755.0,96.81507873535156,8.920775413513184,13.624740600585938,Left
3050.489990234375,26252,1,1755.0,1762.0,1625.0,1725.0,1745.0,1459.0,1859.0,1691.0,96.81507873535156,8.920775413513184,13.624740600585938,Left
3052.489990234375,26252,1,1757.0,1753.0,1807.0,1736.0,1751.0,1746.0,1816.0,1741.0,96.81507873535156,8.920775413513184,13.624740600585938,Left
3054.4140625,26253,1,1756.0,1758.0,1714.0,1774.0,1754.0,1787.0,1771.0,1780.0,96.81507873535156,8.920775413513184,13.624740600585938,Left
3056.4140625,26253,1,1753.0,1748.0,1837.0,1752.0,1752.0,1848.0,1669.0,1743.0,96.81507873535156,8.920775413513184,13.624740600585938,Left
3058.4140625,26253,1,1757.0,1746.0,1899.0,1757.0,1742.0,1931.0,1686.0,1753.0,96.81507873535156,8.920775413513184,13.624740600585938,Left
3060.4140625,26253,1,1757.0,1764.0,1625.0,1765.0,1756.0,2060.0,1715.0,1766.0,96.81507873535156,8.920775413513184,13.624740600585938,Left
3062.4140625,26253,1,1757.0,1787.0,1772.0,1773.0,1764.0,1959.0,1763.0,1776.0,96.81507873535156,8.920775413513184,13.624740600585938,Left
3064.6181640625,26254,1,1757.0,1783.0,1636.0,1757.0,1753.0,1778.0,1711.0,1717.0,96.81507873535156,8.920775413513184,13.624740600585938,Left
3066.6181640625,26254,1,1757.0,1754.0,1919.0,1711.0,1743.0,1815.0,1639.0,1709.0,96.81507873535156,8.920775413513184,13.624740600585938,Left
3068.6181640625,26254,1,1756.0,1751.0,1931.0,1737.0,1743.0,2146.0,1557.0,1755.0,96.81507873535156,8.920775413513184,13.624740600585938,Left
3070.6181640625,26254,1,1757.0,1749.0,1597.0,1737.0,1753.0,2055.0,1685.0,1735.0,96.81507873535156,8.920775413513184,13.624740600585938,Left
3072.6181640625,26254,1,1756.0,1755.0,1771.0,1767.0,1751.0,1971.0,1716.0,1747.0,96.81507873535156,8.920775413513184,13.624740600585938,Left
3074.48193359375,26255,1,1756.0,1767.0,1750.0,1800.0,1756.0,1979.0,1913.0,1751.0,96.81507873535156,8.920775413513184,13.624740600585938,Left
3076.48193359375,26255,1,1755.0,1766.0,1674.0,1750.0,1756.0,1765.0,1687.0,1771.0,96.81507873535156,8.920775413513184,13.624740600585938,Left
3078.48193359375,26255,1,1757.0,1771.0,1789.0,1779.0,1767.0,1947.0,1881.0,1811.0,96.81507873535156,8.920775413513184,13.624740600585938,Left
3080.48193359375,26255,1,1757.0,1775.0,1711.0,1781.0,1765.0,1663.0,1993.0,1763.0,96.54911041259766,9.15394115447998,11.015388488769531,Left
3082.48193359375,26255,1,1757.0,1749.0,1807.0,1742.0,1739.0,1663.0,1951.0,1710.0,96.54911041259766,9.15394115447998,11.015388488769531,Left
3085.48681640625,26256,1,1756.0,1755.0,1637.0,1741.0,1746.0,1381.0,1781.0,1677.0,96.54911041259766,9.15394115447998,11.015388488769531,Left
3087.48681640625,26256,1,1755.0,1756.0,1306.0,1719.0,1755.0,1304.0,1785.0,1749.0,96.54911041259766,9.15394115447998,11.015388488769531,Left
3089.48681640625,26256,1,1757.0,1759.0,1785.0,1717.0,1757.0,1613.0,1783.0,1757.0,96.54911041259766,9.15394115447998,11.015388488769531,Left
3091.48681640625,26256,1,1757.0,1752.0,2003.0,1783.0,1747.0,1682.0,1776.0,1755.0,96.54911041259766,9.15394115447998,11.015388488769531,Left
3093.48681640625,26256,1,1757.0,1735.0,2229.0,1756.0,1716.0,1772.0,1743.0,1752.0,96.54911041259766,9.15394115447998,11.015388488769531,Left
3092.4560546875,26257,1,1757.0,1727.0,2136.0,1810.0,1740.0,2073.0,1791.0,1776.0,96.54911041259766,9.15394115447998,11.015388488769531,Left
3094.4560546875,26257,1,1755.0,1755.0,1763.0,1749.0,1743.0,1757.0,1712.0,1703.0,96.54911041259766,9.15394115447998,11.015388488769531,Left
3096.4560546875,26257,1,1757.0,1780.0,1377.0,1691.0,1763.0,1567.0,1771.0,1705.0,96.54911041259766,9.15394115447998,11.015388488769531,Left
3098.4560546875,26257,1,1757.0,1817.0,1701.0,1766.0,1786.0,1917.0,1843.0,1757.0,96.54911041259766,9.15394115447998,11.015388488769531,Left
3100.4560546875,26257,1,1755.0,1743.0,1691.0,1782.0,1711.0,1988.0,1827.0,1753.0,96.54911041259766,9.15394115447998,11.015388488769531,Left
3106.75537109375,26258,1,1757.0,1758.0,1703.0,1815.0,1746.0,1701.0,1757.0,1763.0,96.54911041259766,9.15394115447998,11.015388488769531,Left
3108.75537109375,26258,1,1757.0,1767.0,1755.0,1771.0,1755.0,1646.0,1802.0,1767.0,96.54911041259766,9.15394115447998,11.015388488769531,Left
3110.75537109375,26258,1,1759.0,1756.0,1672.0,1753.0,1751.0,1781.0,1789.0,1722.0,96.54911041259766,9.15394115447998,11.015388488769531,Left
3112.75537109375,26258,1,1757.0,1763.0,1653.0,1783.0,1759.0,1639.0,1773.0,1750.0,96.54911041259766,9.15394115447998,11.015388488769531,Left
3114.75537109375,26258,1,1756.0,1762.0,1785.0,1763.0,1753.0,1480.0,1681.0,1757.0,96.54911041259766,9.15394115447998,11.015388488769531,Left
3116.9931640625,26259,1,1757.0,1763.0,1624.0,1768.0,1753.0,1443.0,1747.0,1781.0,96.54911041259766,9.15394115447998,11.015388488769531,Left
3118.9931640625,26259,1,1758.0,1752.0,1629.0,1740.0,1771.0,1813.0,1573.0,1749.0,96.54911041259766,9.15394115447998,11.015388488769531,Left
3120.9931640625,26259,1,1757.0,1703.0,1709.0,1719.0,1751.0,1684.0,1685.0,1695.0,96.54911041259766,9.15394115447998,11.015388488769531,Left
3122.9931640625,26259,1,1755.0,1719.0,2162.0,1726.0,1736.0,1852.0,1705.0,1752.0,96.54911041259766,9.15394115447998,11.015388488769531,Left
3124.9931640625,26259,1,1757.0,1775.0,2063.0,1755.0,1763.0,1606.0,1756.0,1785.0,96.54911041259766,9.15394115447998,11.015388488769531,Left
3122.531982421875,26260,1,1757.0,1844.0,1631.0,1784.0,1691.0,1652.0,1725.0,1765.0,96.54911041259766,9.15394115447998,11.015388488769531,Left
3124.531982421875,26260,1,1756.0,1813.0,1724.0,1749.0,1770.0,1615.0,1725.0,1751.0,96.54911041259766,9.15394115447998,11.015388488769531,Left
3126.531982421875,26260,1,1759.0,1789.0,1833.0,1748.0,1763.0,1651.0,1771.0,1775.0,96.54911041259766,9.15394115447998,11.015388488769531,Left
3128.531982421875,26260,1,1757.0,1735.0,1567.0,1685.0,1756.0,1554.0,1766.0,1721.0,96.54911041259766,9.15394115447998,11.015388488769531,Left
3130.531982421875,26260,1,1757.0,1711.0,1639.0,1726.0,1721.0,1523.0,1863.0,1726.0,96.54911041259766,9.15394115447998,11.015388488769531,Left
3134.81103515625,26261,1,1755.0,1750.0,1661.0,1785.0,1818.0,1741.0,1901.0,1759.0,96.54911041259766,9.15394115447998,11.015388488769531,Left
3136.81103515625,26261,1,1757.0,1852.0,1656.0,1753.0,1851.0,1593.0,1897.0,1737.0,96.54911041259766,9.15394115447998,11.015388488769531,Left
3138.81103515625,26261,1,1757.0,1736.0,1881.0,1759.0,1695.0,1764.0,1961.0,1740.0,96.54911041259766,9.15394115447998,11.015388488769531,Left
3140.81103515625,26261,1,1758.0,1692.0,1901.0,1765.0,1625.0,1886.0,1943.0,1775.0,96.54911041259766,9.15394115447998,11.015388488769531,Left
3142.81103515625,26261,1,1756.0,1695.0,1715.0,1764.0,1661.0,1827.0,1849.0,1772.0,96.54911041259766,9.15394115447998,11.015388488769531,Left
3142.910888671875,26262,1,1756.0,1740.0,1901.0,1754.0,1776.0,1763.0,1913.0,1715.0,96.54911041259766,9.15394115447998,11.015388488769531,Left
3144.910888671875,26262,1,1757.0,1855.0,1701.0,1754.0,1785.0,1750.0,1837.0,1719.0,94.38427734375,7.492842197418213,9.507248878479004,Left
3146.910888671875,26262,1,1757.0,1849.0,1759.0,1738.0,1837.0,1991.0,1935.0,1727.0,94.38427734375,7.492842197418213,9.507248878479004,Left
3148.910888671875,26262,1,1756.0,1816.0,1716.0,1759.0,1811.0,1719.0,1800.0,1753.0,94.38427734375,7.492842197418213,9.507248878479004,Left
3150.910888671875,26262,1,1757.0,1769.0,1736.0,1775.0,1780.0,1813.0,1861.0,1751.0,94.38427734375,7.492842197418213,9.507248878479004,Left
3153.45703125,26263,1,1757.0,1618.0,1721.0,1790.0,1564.0,1897.0,1801.0,1764.0,94.38427734375,7.492842197418213,9.507248878479004,Left
3155.45703125,26263,1,1755.0,1751.0,1770.0,1747.0,1543.0,1807.0,1757.0,1785.0,94.38427734375,7.492842197418213,9.507248878479004,Left
3157.45703125,26263,1,1757.0,1807.0,1809.0,1830.0,1848.0,1775.0,1863.0,1799.0,94.38427734375,7.492842197418213,9.507248878479004,Left
3159.45703125,26263,1,1758.0,1689.0,1748.0,1757.0,1789.0,1756.0,1843.0,1712.0,94.38427734375,7.492842197418213,9.507248878479004,Left
3161.45703125,26263,1,1757.0,2028.0,1719.0,1755.0,1829.0,1657.0,1863.0,1739.0,94.38427734375,7.492842197418213,9.507248878479004,Left
3164.960205078125,26264,1,1757.0,1837.0,1733.0,1748.0,1511.0,1508.0,1801.0,1708.0,94.38427734375,7.492842197418213,9.507248878479004,Left
3166.960205078125,26264,1,1754.0,1511.0,1759.0,1804.0,2091.0,1469.0,1757.0,1720.0,94.38427734375,7.492842197418213,9.507248878479004,Left
3168.960205078125,26264,1,1758.0,1673.0,1775.0,1764.0,1943.0,1647.0,1753.0,1779.0,94.38427734375,7.492842197418213,9.507248878479004,Left
3170.960205078125,26264,1,1759.0,1525.0,1801.0,1741.0,887.0,1940.0,1723.0,1763.0,94.38427734375,7.492842197418213,9.507248878479004,Left
3172.960205078125,26264,1,1756.0,1803.0,1747.0,1813.0,859.0,1819.0,1725.0,1751.0,94.38427734375,7.492842197418213,9.507248878479004,Left
3175.10107421875,26265,1,1757.0,2134.0,1767.0,1811.0,2591.0,2053.0,1673.0,1771.0,94.38427734375,7.492842197418213,9.507248878479004,Left
3177.10107421875,26265,1,1755.0,1641.0,1759.0,1699.0,2931.0,1997.0,1464.0,1758.0,94.38427734375,7.492842197418213,9.507248878479004,Left
3179.10107421875,26265,1,1757.0,1275.0,1741.0,1717.0,1925.0,2056.0,1524.0,1716.0,94.38427734375,7.492842197418213,9.507248878479004,Left
3181.10107421875,26265,1,1759.0,2056.0,1739.0,1823.0,1895.0,2045.0,1636.0,1772.0,94.38427734375,7.492842197418213,9.507248878479004,Left
3183.10107421875,26265,1,1757.0,1926.0,1847.0,1907.0,2109.0,1759.0,1529.0,1813.0,94.38427734375,7.492842197418213,9.507248878479004,Left
3185.485107421875,26266,1,1755.0,1901.0,1721.0,1863.0,2078.0,1771.0,1382.0,1651.0,94.38427734375,7.492842197418213,9.507248878479004,Left
3187.485107421875,26266,1,1762.0,1983.0,1656.0,1790.0,1847.0,1566.0,1364.0,1736.0,94.38427734375,7.492842197418213,9.507248878479004,Left
3189.485107421875,26266,1,1755.0,2045.0,1771.0,1880.0,1035.0,1599.0,1591.0,1759.0,94.38427734375,7.492842197418213,9.507248878479004,Left
3191.485107421875,26266,1,1757.0,1842.0,1747.0,1727.0,1837.0,1531.0,1693.0,1737.0,94.38427734375,7.492842197418213,9.507248878479004,Left
3193.485107421875,26266,1,1759.0,1773.0,1735.0,1591.0,1711.0,1633.0,1643.0,1720.0,94.38427734375,7.492842197418213,9.507248878479004,Left
3195.869873046875,26267,1,1757.0,1450.0,1861.0,1847.0,1699.0,1909.0,1539.0,1865.0,94.38427734375,7.492842197418213,9.507248878479004,Left
3197.869873046875,26267,1,1757.0,1598.0,1741.0,1445.0,797.0,1879.0,1403.0,1695.0,94.38427734375,7.492842197418213,9.507248878479004,Left
3199.869873046875,26267,1,1758.0,1261.0,1648.0,1501.0,1175.0,1719.0,1599.0,1700.0,94.38427734375,7.492842197418213,9.507248878479004,Left
3201.869873046875,26267,1,1759.0,1116.0,1756.0,1581.0,1302.0,1877.0,1780.0,1752.0,94.38427734375,7.492842197418213,9.507248878479004,Left
3203.869873046875,26267,1,1759.0,2152.0,1771.0,1606.0,1640.0,1883.0,1803.0,1768.0,94.38427734375,7.492842197418213,9.507248878479004,Left
3205.342041015625,26268,1,1757.0,1871.0,1853.0,2043.0,2395.0,2155.0,1879.0,1799.0,94.38427734375,7.492842197418213,9.507248878479004,Left
3207.342041015625,26268,1,1757.0,2125.0,1737.0,1709.0,2174.0,1992.0,1728.0,1687.0,94.38427734375,7.492842197418213,9.507248878479004,Left
3209.342041015625,26268,1,1757.0,1429.0,1708.0,1638.0,1293.0,2067.0,1813.0,1722.0,94.38427734375,7.492842197418213,9.507248878479004,Left
3211.342041015625,26268,1,1758.0,2135.0,1770.0,1591.0,2215.0,1901.0,1910.0,1742.0,94.38427734375,7.492842197418213,9.507248878479004,Left
3213.342041015625,26268,1,1757.0,2399.0,1709.0,1079.0,2967.0,1725.0,2035.0,1764.0,92.4107666015625,4.183813571929932,7.597682952880859,Left
3214.546875,26269,1,1757.0,1607.0,1783.0,2749.0,1571.0,1755.0,1717.0,1785.0,92.4107666015625,4.183813571929932,7.597682952880859,Left
3216.546875,26269,1,1757.0,1323.0,1705.0,1727.0,500.0,1595.0,1742.0,1717.0,92.4107666015625,4.183813571929932,7.597682952880859,Left
3218.546875,26269,1,1756.0,1279.0,1751.0,1542.0,1604.0,1726.0,1843.0,1755.0,92.4107666015625,4.183813571929932,7.597682952880859,Left
3220.546875,26269,1,1757.0,1419.0,1839.0,1868.0,2093.0,1579.0,1803.0,1784.0,92.4107666015625,4.183813571929932,7.597682952880859,Left
3222.546875,26269,1,1755.0,2076.0,1782.0,1464.0,1399.0,1587.0,1805.0,1700.0,92.4107666015625,4.183813571929932,7.597682952880859,Left
3228.015869140625,26270,1,1756.0,1621.0,1635.0,2090.0,1964.0,1693.0,1605.0,1739.0,92.4107666015625,4.183813571929932,7.597682952880859,Left
3230.015869140625,26270,1,1751.0,1583.0,1844.0,2106.0,1864.0,1684.0,1623.0,1853.0,92.4107666015625,4.183813571929932,7.597682952880859,Left
3232.015869140625,26270,1,1756.0,1937.0,1844.0,1901.0,1193.0,1587.0,1855.0,1728.0,92.4107666015625,4.183813571929932,7.597682952880859,Left
3234.015869140625,26270,1,1757.0,2019.0,1783.0,1522.0,1555.0,1735.0,1903.0,1720.0,92.4107666015625,4.183813571929932,7.597682952880859,Left
3236.015869140625,26270,1,1759.0,1854.0,1769.0,2031.0,1407.0,1635.0,1965.0,1741.0,92.4107666015625,4.183813571929932,7.597682952880859,Left
3234.72314453125,26271,1,1756.0,1235.0,1611.0,1705.0,1917.0,1527.0,1979.0,1707.0,92.4107666015625,4.183813571929932,7.597682952880859,Left
3236.72314453125,26271,1,1756.0,1836.0,1791.0,1881.0,1997.0,1503.0,2041.0,1816.0,92.4107666015625,4.183813571929932,7.597682952880859,Left
3238.72314453125,26271,1,1757.0,2175.0,1703.0,1509.0,2361.0,1682.0,1951.0,1721.0,92.4107666015625,4.183813571929932,7.597682952880859,Left
3240.72314453125,26271,1,1759.0,2227.0,1747.0,1543.0,2599.0,1643.0,1963.0,1759.0,92.4107666015625,4.183813571929932,7.597682952880859,Left
3242.72314453125,26271,1,1757.0,2325.0,1773.0,1439.0,1913.0,1717.0,1789.0,1773.0,92.4107666015625,4.183813571929932,7.597682952880859,Left
3244.9560546875,26272,1,1759.0,1013.0,1719.0,2229.0,1509.0,1757.0,1492.0,1689.0,92.4107666015625,4.183813571929932,7.597682952880859,Left
3246.9560546875,26272,1,1755.0,1103.0,1816.0,1966.0,1785.0,1723.0,1229.0,1804.0,92.4107666015625,4.183813571929932,7.597682952880859,Left
3248.9560546875,26272,1,1757.0,1358.0,1769.0,1637.0,1221.0,1829.0,1416.0,1715.0,92.4107666015625,4.183813571929932,7.597682952880859,Left
3250.9560546875,26272,1,1757.0,2202.0,1720.0,1773.0,327.0,1725.0,1611.0,1720.0,92.4107666015625,4.183813571929932,7.597682952880859,Left
3252.9560546875,26272,1,1755.0,1611.0,1886.0,1837.0,1815.0,1926.0,1579.0,1780.0,92.4107666015625,4.183813571929932,7.597682952880859,Left
3256.093017578125,26273,1,1755.0,2316.0,1823.0,1830.0,2355.0,1821.0,1593.0,1817.0,92.4107666015625,4.183813571929932,7.597682952880859,Left
3258.093017578125,26273,1,1757.0,1979.0,1609.0,1611.0,2189.0,1733.0,1450.0,1659.0,92.4107666015625,4.183813571929932,7.597682952880859,Left
3260.093017578125,26273,1,1757.0,1540.0,1529.0,1492.0,1629.0,1615.0,1669.0,1703.0,92.4107666015625,4.183813571929932,7.597682952880859,Left
3262.093017578125,26273,1,1757.0,1435.0,1652.0,1957.0,2103.0,1598.0,1846.0,1748.0,92.4107666015625,4.183813571929932,7.597682952880859,Left
3264.093017578125,26273,1,1759.0,1891.0,1917.0,2053.0,1866.0,1542.0,1995.0,1781.0,92.4107666015625,4.183813571929932,7.597682952880859,Left
3264.615966796875,26274,1,1755.0,1382.0,1816.0,1875.0,1041.0,1571.0,2033.0,1755.0,92.4107666015625,4.183813571929932,7.597682952880859,Left
3266.615966796875,26274,1,1758.0,1491.0,1736.0,1556.0,1619.0,1546.0,1641.0,1701.0,92.4107666015625,4.183813571929932,7.597682952880859,Left
3268.615966796875,26274,1,1757.0,1741.0,1628.0,1863.0,1699.0,1431.0,1737.0,1567.0,92.4107666015625,4.183813571929932,7.597682952880859,Left
3270.615966796875,26274,1,1755.0,2631.0,1721.0,1453.0,2937.0,1499.0,1749.0,0.0,92.4107666015625,4.183813571929932,7.597682952880859,Left
3272.615966796875,26274,1,1756.0,1098.0,1711.0,1767.0,1599.0,1467.0,1883.0,0.0,92.4107666015625,4.183813571929932,7.597682952880859,Left
3274.725830078125,26275,1,1757.0,1865.0,1790.0,1865.0,803.0,1451.0,2055.0,0.0,92.4107666015625,4.183813571929932,7.597682952880859,Left
3276.725830078125,26275,1,1755.0,1503.0,1813.0,1851.0,1599.0,1655.0,1541.0,0.0,109.92494201660156,15.519434928894043,21.053905487060547,Left
3278.725830078125,26275,1,1757.0,2111.0,1797.0,1380.0,2067.0,1800.0,1719.0,0.0,109.92494201660156,15.519434928894043,21.053905487060547,Left
3280.725830078125,26275,1,1759.0,1589.0,1803.0,1757.0,1685.0,1909.0,1821.0,0.0,109.92494201660156,15.519434928894043,21.053905487060547,Left
3282.725830078125,26275,1,1756.0,2129.0,1749.0,1943.0,1587.0,1783.0,1883.0,0.0,109.92494201660156,15.519434928894043,21.053905487060547,Left
3288.4130859375,26276,1,1757.0,1091.0,1660.0,1800.0,1290.0,1623.0,1967.0,0.0,109.92494201660156,15.519434928894043,21.053905487060547,Left
3290.4130859375,26276,1,1755.0,2085.0,1719.0,1471.0,1961.0,1316.0,1595.0,0.0,109.92494201660156,15.519434928894043,21.053905487060547,Left
3292.4130859375,26276,1,1757.0,2124.0,1801.0,1895.0,2201.0,1391.0,1593.0,0.0,109.92494201660156,15.519434928894043,21.053905487060547,Left
3294.4130859375,26276,1,1757.0,2299.0,1735.0,2101.0,1495.0,1241.0,1717.0,0.0,109.92494201660156,15.519434928894043,21.053905487060547,Left
3296.4130859375,26276,1,1757.0,2792.0,1751.0,1687.0,1707.0,1273.0,1717.0,0.0,109.92494201660156,15.519434928894043,21.053905487060547,Left
3294.950927734375,26277,1,1755.0,0.0,1895.0,1401.0,1066.0,1342.0,1660.0,0.0,109.92494201660156,15.519434928894043,21.053905487060547,Left
3296.950927734375,26277,1,1749.0,1644.0,1752.0,1976.0,1991.0,1508.0,1663.0,0.0,109.92494201660156,15.519434928894043,21.053905487060547,Left
3298.950927734375,26277,1,1759.0,1902.0,1689.0,1903.0,2297.0,1577.0,1662.0,0.0,109.92494201660156,15.519434928894043,21.053905487060547,Left
3300.950927734375,26277,1,1755.0,2263.0,1677.0,1832.0,1975.0,1470.0,1615.0,238.0,109.92494201660156,15.519434928894043,21.053905487060547,Left
3302.950927734375,26277,1,1758.0,1299.0,1751.0,1737.0,1418.0,1827.0,1787.0,471.0,109.92494201660156,15.519434928894043,21.053905487060547,Left
3305.66796875,26278,1,1756.0,1659.0,1676.0,1531.0,995.0,1911.0,1863.0,685.0,109.92494201660156,15.519434928894043,21.053905487060547,Left
3307.66796875,26278,1,1755.0,1727.0,1766.0,1727.0,1831.0,1833.0,1597.0,856.0,109.92494201660156,15.519434928894043,21.053905487060547,Left
3309.66796875,26278,1,1759.0,1912.0,1829.0,1881.0,2377.0,1981.0,1783.0,983.0,109.92494201660156,15.519434928894043,21.053905487060547,Left
3311.66796875,26278,1,1757.0,1832.0,1918.0,1827.0,1883.0,2027.0,1915.0,1101.0,109.92494201660156,15.519434928894043,21.053905487060547,Left
3313.66796875,26278,1,1757.0,1997.0,1907.0,1943.0,1495.0,2227.0,1934.0,1199.0,109.92494201660156,15.519434928894043,21.053905487060547,Left
3315.117919921875,26279,1,1755.0,1711.0,1783.0,1561.0,1711.0,2089.0,1878.0,1287.0,109.92494201660156,15.519434928894043,21.053905487060547,Left
3317.117919921875,26279,1,1761.0,1181.0,1510.0,1662.0,1945.0,2373.0,1759.0,1357.0,109.92494201660156,15.519434928894043,21.053905487060547,Left
3319.117919921875,26279,1,1759.0,2069.0,1501.0,1693.0,1543.0,2327.0,1735.0,1417.0,109.92494201660156,15.519434928894043,21.053905487060547,Left
3321.117919921875,26279,1,1757.0,1597.0,1767.0,1621.0,2119.0,2327.0,1931.0,1463.0,109.92494201660156,15.519434928894043,21.053905487060547,Left
3323.117919921875,26279,1,1759.0,1903.0,1765.0,1528.0,1212.0,2403.0,1932.0,1507.0,109.92494201660156,15.519434928894043,21.053905487060547,Left
3324.26904296875,26280,1,1755.0,2279.0,1839.0,1997.0,2137.0,2191.0,2025.0,1547.0,109.92494201660156,15.519434928894043,21.053905487060547,Left
3326.26904296875,26280,1,1775.0,2218.0,1791.0,1774.0,2537.0,2077.0,1747.0,1575.0,109.92494201660156,15.519434928894043,21.053905487060547,Left
3328.26904296875,26280,1,1775.0,1047.0,1719.0,1555.0,0.0,1972.0,1741.0,1595.0,109.92494201660156,15.519434928894043,21.053905487060547,Left
3330.26904296875,26280,1,1783.0,2006.0,1992.0,1865.0,2844.0,2199.0,1821.0,1621.0,109.92494201660156,15.519434928894043,21.053905487060547,Left
3332.26904296875,26280,1,1783.0,2345.0,1747.0,1875.0,1832.0,2105.0,1962.0,1637.0,109.92494201660156,15.519434928894043,21.053905487060547,Left
3336.296142578125,26281,1,1784.0,1240.0,1663.0,1877.0,1763.0,1895.0,1865.0,1641.0,109.92494201660156,15.519434928894043,21.053905487060547,Left
3338.296142578125,26281,1,1771.0,1524.0,1645.0,1597.0,1867.0,1706.0,1676.0,1661.0,109.92494201660156,15.519434928894043,21.053905487060547,Left
3340.296142578125,26281,1,1779.0,1781.0,1635.0,1326.0,1555.0,1690.0,1595.0,1675.0,109.92494201660156,15.519434928894043,21.053905487060547,Left
3342.296142578125,26281,1,1780.0,2445.0,1815.0,1789.0,1735.0,1651.0,1628.0,1684.0,100.46310424804688,-2.1716933250427246,9.812687873840332,Left
3344.296142578125,26281,1,1783.0,1225.0,1802.0,1769.0,1558.0,1836.0,1715.0,1692.0,100.46310424804688,-2.1716933250427246,9.812687873840332,Left
3343.94287109375,26282,1,1780.0,2059.0,1735.0,1854.0,1661.0,1712.0,1679.0,1693.0,100.46310424804688,-2.1716933250427246,9.812687873840332,Left
3345.94287109375,26282,1,1798.0,1478.0,1853.0,1873.0,1771.0,1864.0,1559.0,1703.0,100.46310424804688,-2.1716933250427246,9.812687873840332,Left
3347.94287109375,26282,1,1796.0,1799.0,1775.0,1635.0,1805.0,1727.0,1683.0,1708.0,100.46310424804688,-2.1716933250427246,9.812687873840332,Left
3349.94287109375,26282,1,1790.0,1655.0,1851.0,1725.0,1397.0,1735.0,1897.0,1710.0,100.46310424804688,-2.1716933250427246,9.812687873840332,Left
3351.94287109375,26282,1,1787.0,1964.0,1759.0,1941.0,1880.0,1685.0,1910.0,1715.0,100.46310424804688,-2.1716933250427246,9.812687873840332,Left
3354.463134765625,26283,1,1789.0,2446.0,1644.0,1755.0,1848.0,1785.0,1836.0,1711.0,100.46310424804688,-2.1716933250427246,9.812687873840332,Left
3356.463134765625,26283,1,1776.0,1245.0,1633.0,1614.0,2091.0,1710.0,1702.0,1721.0,100.46310424804688,-2.1716933250427246,9.812687873840332,Left
3358.463134765625,26283,1,1775.0,1668.0,1721.0,1765.0,2093.0,1805.0,1753.0,1723.0,100.46310424804688,-2.1716933250427246,9.812687873840332,Left
3360.463134765625,26283,1,1775.0,1449.0,1765.0,1821.0,1625.0,1545.0,1801.0,1724.0,100.46310424804688,-2.1716933250427246,9.812687873840332,Left
3362.463134765625,26283,1,1773.0,1748.0,1767.0,1715.0,1685.0,1575.0,1835.0,1725.0,100.46310424804688,-2.1716933250427246,9.812687873840332,Left
3363.98095703125,26284,1,1775.0,1765.0,1845.0,1836.0,1671.0,1750.0,1791.0,1711.0,100.46310424804688,-2.1716933250427246,9.812687873840332,Left
3365.98095703125,26284,1,1783.0,1867.0,1823.0,1779.0,1801.0,1785.0,1646.0,1733.0,100.46310424804688,-2.1716933250427246,9.812687873840332,Left
3367.98095703125,26284,1,1787.0,1739.0,1869.0,1925.0,1899.0,1688.0,1707.0,1734.0,100.46310424804688,-2.1716933250427246,9.812687873840332,Left
3369.98095703125,26284,1,1789.0,1849.0,1766.0,1571.0,1629.0,1861.0,1641.0,1727.0,100.46310424804688,-2.1716933250427246,9.812687873840332,Left
3371.98095703125,26284,1,1786.0,1695.0,1663.0,1691.0,1317.0,1897.0,1753.0,1736.0,100.46310424804688,-2.1716933250427246,9.812687873840332,Left
3374.2412109375,26285,1,1783.0,1740.0,1701.0,1709.0,1993.0,1727.0,1914.0,1724.0,100.46310424804688,-2.1716933250427246,9.812687873840332,Left
3376.2412109375,26285,1,1767.0,1755.0,1789.0,1763.0,1568.0,1929.0,1684.0,1737.0,100.46310424804688,-2.1716933250427246,9.812687873840332,Left
3378.2412109375,26285,1,1769.0,1749.0,1693.0,1814.0,1607.0,1739.0,1823.0,1735.0,100.46310424804688,-2.1716933250427246,9.812687873840332,Left
3380.2412109375,26285,1,1772.0,1819.0,1675.0,1787.0,1813.0,1934.0,1827.0,1735.0,100.46310424804688,-2.1716933250427246,9.812687873840332,Left
3382.2412109375,26285,1,1769.0,2055.0,1780.0,1839.0,1911.0,1957.0,1829.0,1736.0,100.46310424804688,-2.1716933250427246,9.812687873840332,Left
3384.14697265625,26286,1,1770.0,1629.0,1798.0,1775.0,2003.0,1901.0,1769.0,1723.0,100.46310424804688,-2.1716933250427246,9.812687873840332,Left
3386.14697265625,26286,1,1781.0,747.0,1660.0,1485.0,1159.0,1811.0,1615.0,1739.0,100.46310424804688,-2.1716933250427246,9.812687873840332,Left
3388.14697265625,26286,1,1782.0,2651.0,1785.0,1701.0,1763.0,1780.0,1836.0,1739.0,100.46310424804688,-2.1716933250427246,9.812687873840332,Left
3390.14697265625,26286,1,1779.0,2503.0,1837.0,2006.0,1929.0,1751.0,1998.0,1740.0,100.46310424804688,-2.1716933250427246,9.812687873840332,Left
3392.14697265625,26286,1,1780.0,1482.0,1779.0,1903.0,1930.0,1826.0,2039.0,1741.0,100.46310424804688,-2.1716933250427246,9.812687873840332,Left
3394.029052734375,26287,1,1781.0,1661.0,1786.0,1645.0,1672.0,1657.0,1676.0,1739.0,100.46310424804688,-2.1716933250427246,9.812687873840332,Left
3396.029052734375,26287,1,1767.0,1567.0,1635.0,1704.0,1950.0,1607.0,1487.0,1741.0,100.46310424804688,-2.1716933250427246,9.812687873840332,Left
3398.029052734375,26287,1,1769.0,1728.0,1725.0,1693.0,1641.0,1599.0,1673.0,1741.0,100.46310424804688,-2.1716933250427246,9.812687873840332,Left
3400.029052734375,26287,1,1770.0,2095.0,1734.0,1479.0,1715.0,1699.0,1752.0,1740.0,100.46310424804688,-2.1716933250427246,9.812687873840332,Left
3402.029052734375,26287,1,1769.0,911.0,1780.0,1981.0,1263.0,1799.0,1817.0,1739.0,100.46310424804688,-2.1716933250427246,9.812687873840332,Left
3403.11181640625,26288,1,1767.0,1835.0,1734.0,1597.0,1839.0,2012.0,1889.0,1737.0,100.46310424804688,-2.1716933250427246,9.812687873840332,Left
3405.11181640625,26288,1,1783.0,2259.0,1816.0,1939.0,1813.0,1739.0,1699.0,1742.0,100.46310424804688,-2.1716933250427246,9.812687873840332,Left
3407.11181640625,26288,1,1781.0,1699.0,1785.0,1756.0,2023.0,1842.0,1837.0,1742.0,100.46310424804688,-2.1716933250427246,9.812687873840332,Left
3409.11181640625,26288,1,1780.0,1974.0,1801.0,1737.0,2223.0,1964.0,1947.0,1741.0,103.4774169921875,6.808846473693848,23.61903190612793,Left
3411.11181640625,26288,1,1779.0,1506.0,1799.0,1765.0,1892.0,1780.0,1961.0,1741.0,103.4774169921875,6.808846473693848,23.61903190612793,Left
3412.27099609375,26289,1,1774.0,2121.0,1723.0,1771.0,1448.0,1805.0,1723.0,1741.0,103.4774169921875,6.808846473693848,23.61903190612793,Left
3414.27099609375,26289,1,1765.0,1399.0,1768.0,1719.0,2008.0,1656.0,1801.0,1745.0,103.4774169921875,6.808846473693848,23.61903190612793,Left
3416.27099609375,26289,1,1767.0,2387.0,1771.0,1847.0,1843.0,2071.0,1935.0,1743.0,103.4774169921875,6.808846473693848,23.61903190612793,Left
3418.27099609375,26289,1,1769.0,1447.0,1739.0,1754.0,1245.0,1867.0,1948.0,1741.0,103.4774169921875,6.808846473693848,23.61903190612793,Left
3420.27099609375,26289,1,1765.0,2117.0,1717.0,1785.0,1527.0,1960.0,1955.0,1743.0,103.4774169921875,6.808846473693848,23.61903190612793,Left
3423.801025390625,26290,1,1768.0,1577.0,1767.0,1787.0,1781.0,1613.0,1751.0,1741.0,103.4774169921875,6.808846473693848,23.61903190612793,Left
3425.801025390625,26290,1,1779.0,1719.0,1789.0,1753.0,1652.0,1387.0,1747.0,1742.0,103.4774169921875,6.808846473693848,23.61903190612793,Left
3427.801025390625,26290,1,1781.0,1764.0,1765.0,1599.0,1482.0,1369.0,1765.0,1742.0,103.4774169921875,6.808846473693848,23.61903190612793,Left
3429.801025390625,26290,1,1779.0,2087.0,1763.0,1748.0,2099.0,1356.0,1800.0,1741.0,103.4774169921875,6.808846473693848,23.61903190612793,Left
3431.801025390625,26290,1,1775.0,1635.0,1640.0,1707.0,1695.0,1384.0,1773.0,1743.0,103.4774169921875,6.808846473693848,23.61903190612793,Left
3433.007080078125,26291,1,1776.0,1989.0,1771.0,1883.0,1541.0,1509.0,1866.0,1740.0,103.4774169921875,6.808846473693848,23.61903190612793,Left
3435.007080078125,26291,1,1757.0,1481.0,1789.0,1799.0,1099.0,1717.0,1737.0,1743.0,103.4774169921875,6.808846473693848,23.61903190612793,Left
3437.007080078125,26291,1,1757.0,1775.0,1749.0,1817.0,2203.0,1625.0,1787.0,1743.0,103.4774169921875,6.808846473693848,23.61903190612793,Left
3439.007080078125,26291,1,1765.0,1833.0,1749.0,1499.0,1703.0,1849.0,1851.0,1741.0,103.4774169921875,6.808846473693848,23.61903190612793,Left
3441.007080078125,26291,1,1765.0,1767.0,1800.0,2031.0,1683.0,1861.0,1835.0,1741.0,103.4774169921875,6.808846473693848,23.61903190612793,Left
3442.402099609375,26292,1,1765.0,1903.0,1763.0,1755.0,1944.0,2059.0,1688.0,1741.0,103.4774169921875,6.808846473693848,23.61903190612793,Left
3444.402099609375,26292,1,1776.0,1087.0,1822.0,1555.0,1753.0,2043.0,1629.0,1740.0,103.4774169921875,6.808846473693848,23.61903190612793,Left
3446.402099609375,26292,1,1781.0,1884.0,1774.0,1975.0,1675.0,1891.0,1608.0,1743.0,103.4774169921875,6.808846473693848,23.61903190612793,Left
3448.402099609375,26292,1,1775.0,1835.0,1803.0,1781.0,1704.0,1897.0,1629.0,1742.0,103.4774169921875,6.808846473693848,23.61903190612793,Left
3450.402099609375,26292,1,1772.0,1961.0,1709.0,1743.0,1803.0,1704.0,1643.0,1742.0,103.4774169921875,6.808846473693848,23.61903190612793,Left
3452.286865234375,26293,1,1773.0,2273.0,1638.0,1799.0,1763.0,1753.0,1656.0,1742.0,103.4774169921875,6.808846473693848,23.61903190612793,Left
3454.286865234375,26293,1,1756.0,1106.0,1752.0,1789.0,1769.0,1868.0,1754.0,1743.0,103.4774169921875,6.808846473693848,23.61903190612793,Left
3456.286865234375,26293,1,1757.0,1947.0,1781.0,1709.0,1734.0,1683.0,1904.0,1741.0,103.4774169921875,6.808846473693848,23.61903190612793,Left
3458.286865234375,26293,1,1763.0,1960.0,1721.0,1636.0,2099.0,1661.0,1751.0,1741.0,103.4774169921875,6.808846473693848,23.61903190612793,Left
3460.286865234375,26293,1,1759.0,1615.0,1693.0,1671.0,1311.0,1641.0,1725.0,1747.0,103.4774169921875,6.808846473693848,23.61903190612793,Left
3464.180908203125,26294,1,1762.0,1209.0,1815.0,1736.0,1738.0,1638.0,1635.0,1743.0,103.4774169921875,6.808846473693848,23.61903190612793,Left
3466.180908203125,26294,1,1773.0,1919.0,1932.0,1997.0,2089.0,1712.0,1813.0,1741.0,103.4774169921875,6.808846473693848,23.61903190612793,Left
3468.180908203125,26294,1,1775.0,1661.0,1849.0,1743.0,1880.0,1571.0,1747.0,1745.0,103.4774169921875,6.808846473693848,23.61903190612793,Left
3470.180908203125,26294,1,1771.0,1771.0,1623.0,1703.0,1593.0,1583.0,1769.0,1745.0,103.4774169921875,6.808846473693848,23.61903190612793,Left
3472.180908203125,26294,1,1771.0,1707.0,1464.0,1687.0,1915.0,1615.0,1886.0,1745.0,104.17215728759766,8.642183303833008,30.74277687072754,Left
3474.080078125,26295,1,1771.0,2035.0,1791.0,1779.0,2124.0,1415.0,1886.0,1727.0,104.17215728759766,8.642183303833008,30.74277687072754,Left
3476.080078125,26295,1,1757.0,1599.0,1834.0,1771.0,1405.0,1561.0,1529.0,1747.0,104.17215728759766,8.642183303833008,30.74277687072754,Left
3478.080078125,26295,1,1755.0,1407.0,1660.0,1613.0,1853.0,1524.0,1679.0,1745.0,104.17215728759766,8.642183303833008,30.74277687072754,Left
3480.080078125,26295,1,1759.0,2277.0,1821.0,1677.0,1932.0,1517.0,1837.0,1747.0,104.17215728759766,8.642183303833008,30.74277687072754,Left
3482.080078125,26295,1,1765.0,1909.0,1851.0,1865.0,1640.0,1691.0,1862.0,1743.0,104.17215728759766,8.642183303833008,30.74277687072754,Left
3482.4140625,26296,1,1758.0,1739.0,1823.0,1819.0,2058.0,1513.0,2073.0,1725.0,104.17215728759766,8.642183303833008,30.74277687072754,Left
3484.4140625,26296,1,1765.0,1733.0,1769.0,1679.0,1463.0,1501.0,1510.0,1747.0,104.17215728759766,8.642183303833008,30.74277687072754,Left
3486.4140625,26296,1,1779.0,1359.0,1711.0,1723.0,1581.0,1381.0,1485.0,1747.0,104.17215728759766,8.642183303833008,30.74277687072754,Left
3488.4140625,26296,1,1771.0,1885.0,1781.0,1717.0,1945.0,1452.0,1674.0,1746.0,104.17215728759766,8.642183303833008,30.74277687072754,Left
3490.4140625,26296,1,1771.0,1815.0,1833.0,1915.0,1756.0,1833.0,1670.0,1747.0,104.17215728759766,8.642183303833008,30.74277687072754,Left
3492.360107421875,26297,1,1770.0,1195.0,1803.0,1833.0,1883.0,1644.0,1749.0,1743.0,104.17215728759766,8.642183303833008,30.74277687072754,Left
3494.360107421875,26297,1,1755.0,1959.0,1619.0,1556.0,1868.0,1962.0,1863.0,1747.0,104.17215728759766,8.642183303833008,30.74277687072754,Left
3496.360107421875,26297,1,1753.0,1781.0,1677.0,1785.0,1835.0,1925.0,1903.0,1742.0,104.17215728759766,8.642183303833008,30.74277687072754,Left
3498.360107421875,26297,1,1756.0,1917.0,1750.0,1767.0,1395.0,2071.0,1911.0,1747.0,104.17215728759766,8.642183303833008,30.74277687072754,Left
3500.360107421875,26297,1,1759.0,1754.0,1747.0,1781.0,1584.0,1967.0,1886.0,1745.0,104.17215728759766,8.642183303833008,30.74277687072754,Left
3502.696044921875,26298,1,1756.0,1783.0,1782.0,1773.0,1931.0,1971.0,1849.0,1741.0,104.17215728759766,8.642183303833008,30.74277687072754,Left
3504.696044921875,26298,1,1770.0,1749.0,1727.0,1617.0,1947.0,1929.0,1995.0,1746.0,104.17215728759766,8.642183303833008,30.74277687072754,Left
3506.696044921875,26298,1,1775.0,1790.0,1819.0,1959.0,1530.0,1914.0,1945.0,1743.0,104.17215728759766,8.642183303833008,30.74277687072754,Left
3508.696044921875,26298,1,1770.0,1657.0,1739.0,1779.0,1852.0,1924.0,2035.0,1743.0,104.17215728759766,8.642183303833008,30.74277687072754,Left
3510.696044921875,26298,1,1771.0,1945.0,1767.0,1597.0,1901.0,1998.0,2009.0,1741.0,104.17215728759766,8.642183303833008,30.74277687072754,Left
3513.91015625,26299,1,1767.0,1911.0,1792.0,1775.0,1711.0,1930.0,1759.0,1747.0,104.17215728759766,8.642183303833008,30.74277687072754,Left
3515.91015625,26299,1,1755.0,1486.0,1646.0,1717.0,1629.0,1775.0,1704.0,1747.0,104.17215728759766,8.642183303833008,30.74277687072754,Left
3517.91015625,26299,1,1753.0,2065.0,1767.0,1939.0,1973.0,1736.0,1695.0,1746.0,104.17215728759766,8.642183303833008,30.74277687072754,Left
3519.91015625,26299,1,1755.0,1389.0,1817.0,1661.0,1559.0,1810.0,1656.0,1742.0,104.17215728759766,8.642183303833008,30.74277687072754,Left
3521.91015625,26299,1,1757.0,1653.0,1800.0,1623.0,1691.0,1881.0,1737.0,1743.0,104.17215728759766,8.642183303833008,30.74277687072754,Left
3525.35205078125,26300,1,1757.0,1884.0,1791.0,1848.0,1937.0,1912.0,1991.0,1727.0,104.17215728759766,8.642183303833008,30.74277687072754,Left
3527.35205078125,26300,1,1773.0,1609.0,1768.0,1699.0,1655.0,1747.0,1470.0,1747.0,104.17215728759766,8.642183303833008,30.74277687072754,Left
3529.35205078125,26300,1,1779.0,2085.0,1587.0,1759.0,1917.0,1573.0,1529.0,1747.0,104.17215728759766,8.642183303833008,30.74277687072754,Left
3531.35205078125,26300,1,1771.0,1919.0,1721.0,1787.0,1639.0,1575.0,1611.0,1743.0,104.17215728759766,8.642183303833008,30.74277687072754,Left
3533.35205078125,26300,1,1769.0,1642.0,1821.0,1801.0,1438.0,1571.0,1623.0,1745.0,104.17215728759766,8.642183303833008,30.74277687072754,Left
3534.94189453125,26301,1,1769.0,1961.0,1769.0,1763.0,1930.0,1672.0,1575.0,1743.0,104.17215728759766,8.642183303833008,30.74277687072754,Left
3536.94189453125,26301,1,1757.0,1531.0,1699.0,1721.0,1715.0,1485.0,1656.0,1743.0,104.17215728759766,8.642183303833008,30.74277687072754,Left
3538.94189453125,26301,1,1753.0,1835.0,1715.0,1827.0,1661.0,1332.0,1751.0,1747.0,104.17215728759766,8.642183303833008,30.74277687072754,Left
3540.94189453125,26301,1,1756.0,1713.0,1811.0,1786.0,1819.0,1417.0,1851.0,1746.0,101.51541137695312,8.13931941986084,22.325857162475586,Left
3542.94189453125,26301,1,1757.0,1835.0,1827.0,1797.0,1685.0,1555.0,1847.0,1743.0,101.51541137695312,8.13931941986084,22.325857162475586,Left
3543.170166015625,26302,1,1757.0,1798.0,1820.0,1591.0,1951.0,1747.0,1703.0,1746.0,101.51541137695312,8.13931941986084,22.325857162475586,Left
3545.170166015625,26302,1,1769.0,2365.0,1787.0,1855.0,1935.0,1655.0,1887.0,1747.0,101.51541137695312,8.13931941986084,22.325857162475586,Left
3547.170166015625,26302,1,1773.0,1671.0,1643.0,1785.0,1577.0,1809.0,1639.0,1745.0,101.51541137695312,8.13931941986084,22.325857162475586,Left
3549.170166015625,26302,1,1771.0,1615.0,1684.0,1787.0,1769.0,2015.0,1781.0,1747.0,101.51541137695312,8.13931941986084,22.325857162475586,Left
3551.170166015625,26302,1,1769.0,1276.0,1693.0,1784.0,1495.0,2073.0,1849.0,1749.0,101.51541137695312,8.13931941986084,22.325857162475586,Left
3553.717041015625,26303,1,1768.0,1849.0,1742.0,1640.0,1772.0,1775.0,1751.0,1745.0,101.51541137695312,8.13931941986084,22.325857162475586,Left
3555.717041015625,26303,1,1756.0,1700.0,1803.0,1851.0,1746.0,1939.0,1695.0,1749.0,101.51541137695312,8.13931941986084,22.325857162475586,Left
3557.717041015625,26303,1,1749.0,1903.0,1817.0,1853.0,1783.0,2125.0,1769.0,1745.0,101.51541137695312,8.13931941986084,22.325857162475586,Left
3559.717041015625,26303,1,1755.0,1711.0,1751.0,1672.0,1865.0,1981.0,1779.0,1745.0,101.51541137695312,8.13931941986084,22.325857162475586,Left
3561.717041015625,26303,1,1759.0,2261.0,1763.0,1634.0,1974.0,1823.0,1885.0,1747.0,101.51541137695312,8.13931941986084,22.325857162475586,Left
3563.39404296875,26304,1,1756.0,930.0,1693.0,1861.0,1381.0,1927.0,1577.0,1742.0,101.51541137695312,8.13931941986084,22.325857162475586,Left
3565.39404296875,26304,1,1768.0,2326.0,1845.0,1880.0,1481.0,1663.0,1563.0,1749.0,101.51541137695312,8.13931941986084,22.325857162475586,Left
3567.39404296875,26304,1,1773.0,1513.0,1785.0,1770.0,1695.0,1553.0,1684.0,1743.0,101.51541137695312,8.13931941986084,22.325857162475586,Left
3569.39404296875,26304,1,1769.0,2009.0,1749.0,1627.0,1675.0,1677.0,1589.0,1747.0,101.51541137695312,8.13931941986084,22.325857162475586,Left
3571.39404296875,26304,1,1769.0,1635.0,1753.0,1691.0,2156.0,1605.0,1656.0,1748.0,101.51541137695312,8.13931941986084,22.325857162475586,Left
3572.611083984375,26305,1,1767.0,1939.0,1804.0,1862.0,1976.0,1657.0,1773.0,1743.0,101.51541137695312,8.13931941986084,22.325857162475586,Left
3574.611083984375,26305,1,1755.0,1820.0,1771.0,1747.0,1493.0,1605.0,1883.0,1749.0,101.51541137695312,8.13931941986084,22.325857162475586,Left
3576.611083984375,26305,1,1749.0,1913.0,1678.0,1943.0,1781.0,1957.0,1871.0,1746.0,101.51541137695312,8.13931941986084,22.325857162475586,Left
3578.611083984375,26305,1,1755.0,1695.0,1727.0,1459.0,1699.0,1845.0,1823.0,1746.0,101.51541137695312,8.13931941986084,22.325857162475586,Left
3580.611083984375,26305,1,1755.0,1775.0,1721.0,1895.0,1896.0,1853.0,1883.0,1747.0,101.51541137695312,8.13931941986084,22.325857162475586,Left
3581.858154296875,26306,1,1757.0,1613.0,1783.0,1763.0,1416.0,1813.0,1719.0,1746.0,101.51541137695312,8.13931941986084,22.325857162475586,Left
3583.858154296875,26306,1,1769.0,1735.0,1783.0,1797.0,1721.0,1999.0,1799.0,1747.0,101.51541137695312,8.13931941986084,22.325857162475586,Left
3585.858154296875,26306,1,1774.0,1525.0,1786.0,1832.0,2279.0,1980.0,1812.0,1747.0,101.51541137695312,8.13931941986084,22.325857162475586,Left
3587.858154296875,26306,1,1769.0,1955.0,1735.0,1379.0,1618.0,1852.0,1739.0,1747.0,101.51541137695312,8.13931941986084,22.325857162475586,Left
3589.858154296875,26306,1,1767.0,1743.0,1827.0,2173.0,1781.0,1971.0,1797.0,1747.0,101.51541137695312,8.13931941986084,22.325857162475586,Left
3595.760986328125,26307,1,1767.0,1965.0,1764.0,1801.0,1836.0,1733.0,1747.0,1746.0,101.51541137695312,8.13931941986084,22.325857162475586,Left
3597.760986328125,26307,1,1755.0,2102.0,1749.0,1799.0,1827.0,1817.0,1749.0,2038.0,101.51541137695312,8.13931941986084,22.325857162475586,Left
3599.760986328125,26307,1,1749.0,1459.0,1719.0,1609.0,1834.0,1849.0,1753.0,2222.0,101.51541137695312,8.13931941986084,22.325857162475586,Left
3601.760986328125,26307,1,1752.0,1943.0,1733.0,1800.0,1751.0,1800.0,1939.0,2334.0,101.51541137695312,8.13931941986084,22.325857162475586,Left
3603.760986328125,26307,1,1757.0,1337.0,1701.0,1801.0,1624.0,1946.0,1907.0,2540.0,101.51541137695312,8.13931941986084,22.325857162475586,Left
3602.511962890625,26308,1,1757.0,1975.0,1775.0,1669.0,1958.0,1753.0,1715.0,2601.0,101.51541137695312,8.13931941986084,22.325857162475586,Left
3604.511962890625,26308,1,1768.0,1993.0,1753.0,1976.0,1659.0,1639.0,1770.0,2681.0,102.42005920410156,8.884256362915039,24.6267147064209,Left
3606.511962890625,26308,1,1773.0,1652.0,1743.0,1624.0,1509.0,1596.0,1621.0,3044.0,102.42005920410156,8.884256362915039,24.6267147064209,Left
3608.511962890625,26308,1,1768.0,1694.0,1738.0,1787.0,1823.0,1355.0,1663.0,2931.0,102.42005920410156,8.884256362915039,24.6267147064209,Left
3610.511962890625,26308,1,1767.0,2153.0,1788.0,1835.0,1773.0,1252.0,1763.0,2919.0,102.42005920410156,8.884256362915039,24.6267147064209,Left
3614.0810546875,26309,1,1765.0,1415.0,1779.0,1739.0,1491.0,1416.0,1676.0,2976.0,102.42005920410156,8.884256362915039,24.6267147064209,Left
3616.0810546875,26309,1,1757.0,1821.0,1741.0,1887.0,1947.0,1463.0,1831.0,3124.0,102.42005920410156,8.884256362915039,24.6267147064209,Left
3618.0810546875,26309,1,1747.0,1811.0,1717.0,1677.0,2185.0,1578.0,1699.0,3242.0,102.42005920410156,8.884256362915039,24.6267147064209,Left
3620.0810546875,26309,1,1753.0,1739.0,1769.0,1607.0,1699.0,1691.0,1749.0,3081.0,102.42005920410156,8.884256362915039,24.6267147064209,Left
3622.0810546875,26309,1,1755.0,2181.0,1823.0,1845.0,1829.0,1675.0,1891.0,3064.0,102.42005920410156,8.884256362915039,24.6267147064209,Left
3626.589111328125,26310,1,1751.0,823.0,1763.0,1654.0,1575.0,1674.0,1789.0,2904.0,102.42005920410156,8.884256362915039,24.6267147064209,Left
3628.589111328125,26310,1,1765.0,2441.0,1788.0,1914.0,1668.0,1751.0,1655.0,2943.0,102.42005920410156,8.884256362915039,24.6267147064209,Left
3630.589111328125,26310,1,1775.0,1547.0,1735.0,1753.0,1612.0,1549.0,1763.0,2984.0,102.42005920410156,8.884256362915039,24.6267147064209,Left
3632.589111328125,26310,1,1767.0,1745.0,1721.0,1639.0,1806.0,1623.0,1897.0,2805.0,102.42005920410156,8.884256362915039,24.6267147064209,Left
3634.589111328125,26310,1,1766.0,1763.0,1752.0,1853.0,1951.0,1673.0,1909.0,2797.0,102.42005920410156,8.884256362915039,24.6267147064209,Left
3634.230224609375,26311,1,1765.0,1980.0,1637.0,1684.0,1599.0,1753.0,1750.0,2675.0,102.42005920410156,8.884256362915039,24.6267147064209,Left
3636.230224609375,26311,1,1759.0,1379.0,1699.0,1549.0,1725.0,1865.0,1545.0,2776.0,102.42005920410156,8.884256362915039,24.6267147064209,Left
3638.230224609375,26311,1,1749.0,1765.0,1771.0,1723.0,1941.0,1765.0,1662.0,2611.0,102.42005920410156,8.884256362915039,24.6267147064209,Left
3640.230224609375,26311,1,1753.0,1743.0,1807.0,1836.0,1791.0,1627.0,1727.0,2356.0,102.42005920410156,8.884256362915039,24.6267147064209,Left
3642.230224609375,26311,1,1755.0,1824.0,1785.0,1879.0,1403.0,1901.0,1789.0,2183.0,102.42005920410156,8.884256362915039,24.6267147064209,Left
3645.239013671875,26312,1,1755.0,2285.0,1813.0,1752.0,1768.0,1867.0,1999.0,2010.0,102.42005920410156,8.884256362915039,24.6267147064209,Left
3647.239013671875,26312,1,1764.0,1427.0,1725.0,1785.0,1883.0,1831.0,1507.0,1881.0,102.42005920410156,8.884256362915039,24.6267147064209,Left
3649.239013671875,26312,1,1773.0,1419.0,1747.0,1766.0,1810.0,1722.0,1707.0,1893.0,102.42005920410156,8.884256362915039,24.6267147064209,Left
3651.239013671875,26312,1,1767.0,1669.0,1821.0,1737.0,1677.0,1781.0,1727.0,1897.0,102.42005920410156,8.884256362915039,24.6267147064209,Left
3653.239013671875,26312,1,1766.0,1739.0,1755.0,1621.0,1784.0,1813.0,1781.0,2013.0,102.42005920410156,8.884256362915039,24.6267147064209,Left
3652.342041015625,26313,1,1767.0,1661.0,1736.0,1639.0,1696.0,1403.0,2065.0,2027.0,102.42005920410156,8.884256362915039,24.6267147064209,Left
3654.342041015625,26313,1,1755.0,2206.0,1772.0,1875.0,2009.0,1401.0,1756.0,2070.0,102.42005920410156,8.884256362915039,24.6267147064209,Left
3656.342041015625,26313,1,1748.0,1647.0,1637.0,1839.0,1799.0,1566.0,1643.0,2031.0,102.42005920410156,8.884256362915039,24.6267147064209,Left
3658.342041015625,26313,1,1752.0,1563.0,1657.0,1635.0,1590.0,1655.0,1685.0,2013.0,102.42005920410156,8.884256362915039,24.6267147064209,Left
3660.342041015625,26313,1,1753.0,2063.0,1761.0,1934.0,1817.0,1689.0,1800.0,1981.0,102.42005920410156,8.884256362915039,24.6267147064209,Left
3662.570068359375,26314,1,1753.0,2020.0,1765.0,1673.0,1801.0,1741.0,1727.0,2027.0,102.42005920410156,8.884256362915039,24.6267147064209,Left
3664.570068359375,26314,1,1764.0,1657.0,1806.0,1685.0,1773.0,1809.0,1749.0,2211.0,102.42005920410156,8.884256362915039,24.6267147064209,Left
3666.570068359375,26314,1,1773.0,1707.0,1801.0,1803.0,1633.0,1853.0,1771.0,2341.0,102.42005920410156,8.884256362915039,24.6267147064209,Left
3668.570068359375,26314,1,1767.0,1785.0,1738.0,1866.0,1843.0,1896.0,1861.0,2377.0,104.7421875,7.50496244430542,29.428945541381836,Left
3670.570068359375,26314,1,1767.0,1772.0,1799.0,1625.0,1821.0,1716.0,1835.0,2474.0,104.7421875,7.50496244430542,29.428945541381836,Left
3672.616943359375,26315,1,1765.0,1742.0,1779.0,1826.0,1643.0,1829.0,1845.0,2463.0,104.7421875,7.50496244430542,29.428945541381836,Left
3674.616943359375,26315,1,1755.0,1772.0,1779.0,1813.0,1676.0,1687.0,1763.0,2511.0,104.7421875,7.50496244430542,29.428945541381836,Left
3676.616943359375,26315,1,1747.0,1652.0,1720.0,1455.0,1781.0,2029.0,1828.0,2442.0,104.7421875,7.50496244430542,29.428945541381836,Left
3678.616943359375,26315,1,1751.0,1895.0,1715.0,1833.0,1597.0,1877.0,1785.0,2197.0,104.7421875,7.50496244430542,29.428945541381836,Left
3680.616943359375,26315,1,1757.0,1710.0,1749.0,1883.0,1979.0,2089.0,1875.0,2085.0,104.7421875,7.50496244430542,29.428945541381836,Left
3688.4560546875,26316,1,1751.0,1741.0,1752.0,1766.0,1763.0,2215.0,1761.0,1983.0,104.7421875,7.50496244430542,29.428945541381836,Left
3690.4560546875,26316,1,1763.0,1786.0,1758.0,1577.0,1647.0,1887.0,1696.0,2043.0,104.7421875,7.50496244430542,29.428945541381836,Left
3692.4560546875,26316,1,1774.0,1959.0,1742.0,1803.0,1645.0,1629.0,1693.0,2054.0,104.7421875,7.50496244430542,29.428945541381836,Left
3694.4560546875,26316,1,1768.0,1499.0,1764.0,1679.0,1739.0,1529.0,1621.0,2139.0,104.7421875,7.50496244430542,29.428945541381836,Left
3696.4560546875,26316,1,1765.0,1403.0,1774.0,1787.0,1568.0,1573.0,1752.0,1895.0,104.7421875,7.50496244430542,29.428945541381836,Left
3693.24609375,26317,1,1765.0,1753.0,1743.0,1613.0,1740.0,1741.0,1759.0,1773.0,104.7421875,7.50496244430542,29.428945541381836,Left
3695.24609375,26317,1,1743.0,1436.0,1733.0,1799.0,1635.0,1723.0,1623.0,1753.0,104.7421875,7.50496244430542,29.428945541381836,Left
3697.24609375,26317,1,1745.0,2185.0,1765.0,1783.0,1693.0,1854.0,1810.0,1801.0,104.7421875,7.50496244430542,29.428945541381836,Left
3699.24609375,26317,1,1752.0,1903.0,1818.0,1829.0,1757.0,2005.0,2046.0,1899.0,104.7421875,7.50496244430542,29.428945541381836,Left
3701.24609375,26317,1,1755.0,1417.0,1800.0,1743.0,1797.0,2023.0,1807.0,1913.0,104.7421875,7.50496244430542,29.428945541381836,Left
3704.397216796875,26318,1,1751.0,1629.0,1769.0,1833.0,1718.0,1941.0,1738.0,2020.0,104.7421875,7.50496244430542,29.428945541381836,Left
3706.397216796875,26318,1,1759.0,1903.0,1608.0,1659.0,1717.0,1643.0,1853.0,1903.0,104.7421875,7.50496244430542,29.428945541381836,Left
3708.397216796875,26318,1,1773.0,1554.0,1641.0,1705.0,1800.0,1610.0,1835.0,1933.0,104.7421875,7.50496244430542,29.428945541381836,Left
3710.397216796875,26318,1,1767.0,1891.0,1785.0,1759.0,1800.0,1784.0,1775.0,2063.0,104.7421875,7.50496244430542,29.428945541381836,Left
3712.397216796875,26318,1,1766.0,1695.0,1781.0,1751.0,1918.0,1583.0,1789.0,2123.0,104.7421875,7.50496244430542,29.428945541381836,Left
3716.3232421875,26319,1,1767.0,1723.0,1755.0,1779.0,1635.0,1708.0,1644.0,2187.0,104.7421875,7.50496244430542,29.428945541381836,Left
3718.3232421875,26319,1,1741.0,1772.0,1804.0,1816.0,1910.0,1639.0,1541.0,2349.0,104.7421875,7.50496244430542,29.428945541381836,Left
3720.3232421875,26319,1,1747.0,1663.0,1788.0,1655.0,1839.0,1870.0,1651.0,2297.0,104.7421875,7.50496244430542,29.428945541381836,Left
